x,y,z,theta,kappa,s,dkappa
89.0309,-6.67741,0,-0.0460804,-5.69874e-06,0,-3.83638e-05
90.0306,-6.72352,0,-0.0461066,-4.71812e-05,1.00077,-4.20903e-05
91.0304,-6.76968,0,-0.0461741,-8.68855e-05,2.00155,-3.68153e-05
92.0301,-6.81592,0,-0.0462787,-0.000121707,3.00232,-3.37971e-05
93.0298,-6.86229,0,-0.0464179,-0.000157264,4.0031,-3.89195e-05
94.0295,-6.90881,0,-0.0465971,-0.000203775,5.00387,-5.67756e-05
95.0291,-6.95554,0,-0.0468351,-0.000278329,6.00465,-9.55878e-05
96.0288,-7.00255,0,-0.0471705,-0.000402299,7.00542,-0.000157073
97.0285,-7.04997,0,-0.0476667,-0.000606279,8.0062,-0.000259597
98.0281,-7.09801,0,-0.0484288,-0.000945558,9.00697,-0.000433152
99.0277,-7.14701,0,-0.0496329,-0.0015055,10.0077,-0.000699917
100.027,-7.19755,0,-0.051538,-0.00234634,11.0085,-0.000970344
101.027,-7.25045,0,-0.0544115,-0.0034317,12.0093,-0.00117938
102.026,-7.30679,0,-0.0584469,-0.00462877,13.0101,-0.00115072
103.025,-7.36774,0,-0.0635922,-0.00556216,14.0108,-0.000501102
104.023,-7.43408,0,-0.0689329,-0.00459187,15.0116,0.00258506
105.021,-7.50474,0,-0.0716811,-0.000373121,16.0124,0.00572496
106.02,-7.57555,0,-0.0687919,0.00649066,17.0132,0.0077869
107.018,-7.63974,0,-0.0581835,0.014898,18.0139,0.008933
108.018,-7.68895,0,-0.0386271,0.0243754,19.0147,0.0100937
109.018,-7.71364,0,-0.00890268,0.0351967,20.0155,0.0107632
110.019,-7.70319,0,0.031472,0.0452968,21.0163,0.00959977
111.018,-7.64746,0,0.0815431,0.0547392,22.017,0.00942816
112.013,-7.53709,0,0.141167,0.0647454,23.0178,0.0117042
112.998,-7.36213,0,0.212822,0.0795129,24.0186,0.0180571
113.966,-7.10887,0,0.302688,0.101381,25.0194,0.0258389
114.903,-6.75834,0,0.418269,0.130088,26.0201,0.0283236
115.786,-6.2897,0,0.561384,0.154363,27.0209,0.0189882
116.587,-5.69173,0,0.723008,0.166103,28.0217,0.00393203
117.279,-4.97041,0,0.888374,0.161369,29.0225,-0.0136667
117.847,-4.14784,0,1.04054,0.140595,30.0232,-0.0264293
118.295,-3.25374,0,1.16695,0.11127,31.024,-0.0310327
118.641,-2.31504,0,1.26421,0.0845421,32.0248,-0.0226257
118.906,-1.35015,0,1.33859,0.0650946,33.0256,-0.0166397
119.107,-0.369905,0,1.39613,0.0505567,34.0263,-0.0127073
119.258,0.619339,0,1.44066,0.0387035,35.0271,-0.0111323
119.37,1.61373,0,1.47399,0.0280207,36.0279,-0.0103217
119.455,2.61091,0,1.49693,0.0178731,37.0287,-0.0100244
119.521,3.60947,0,1.50987,0.00808162,38.0294,-0.00952765
119.58,4.60853,0,1.51326,-0.00124739,39.0302,-0.00914351
119.64,5.60752,0,1.50747,-0.0102743,40.031,-0.00892238
119.709,6.60584,0,1.49274,-0.0191585,41.0318,-0.00887936
119.799,7.60262,0,1.46908,-0.0281936,42.0325,-0.00927138
119.916,8.59646,0,1.43607,-0.0379533,43.0333,-0.01038
120.071,9.58507,0,1.3924,-0.0501262,44.0341,-0.0149755
120.276,10.5645,0,1.33352,-0.0688747,45.0349,-0.0229652
120.548,11.5271,0,1.25136,-0.0971752,46.0356,-0.0341521
120.914,12.4581,0,1.13565,-0.134339,47.0364,-0.0366884
121.401,13.3316,0,0.984023,-0.167024,48.0372,-0.0266632
122.024,14.1125,0,0.806638,-0.183994,49.038,-0.00601841
122.779,14.7675,0,0.624351,-0.175774,50.0387,0.0207838
123.636,15.282,0,0.461553,-0.147561,51.0395,0.0329011
124.56,15.6653,0,0.33064,-0.114434,52.0403,0.0298072
125.522,15.9396,0,0.229106,-0.0901428,53.0411,0.019765
126.505,16.1257,0,0.147768,-0.0732693,54.0418,0.0145747
127.499,16.2389,0,0.0812704,-0.0599886,55.0426,0.0123463
128.498,16.2922,0,0.0271872,-0.0483164,56.0434,0.0110152
129.499,16.297,0,-0.0158411,-0.0378514,57.0442,0.0099495
130.499,16.2638,0,-0.0488813,-0.0283333,58.0449,0.00893003
131.498,16.2022,0,-0.0730098,-0.0201174,59.0457,0.00754258
132.495,16.1203,0,-0.0895633,-0.0131532,60.0465,0.00640533
133.492,16.0253,0,-0.0996923,-0.0072667,61.0473,0.0053005
134.487,15.9229,0,-0.104546,-0.00267055,62.048,0.00387744
135.482,15.8177,0,-0.10552,0.000477758,63.0488,0.00240539
136.478,15.7129,0,-0.104089,0.00214249,64.0496,0.00106054
137.473,15.6101,0,-0.101508,0.00292001,65.0504,0.000490842
138.469,15.5102,0,-0.0984369,0.00312132,66.0511,-8.97639e-05
139.465,15.4134,0,-0.0954552,0.00274797,67.0519,-0.000568624
140.461,15.3193,0,-0.0929838,0.00219714,68.0527,-0.000531654
141.458,15.2274,0,-0.0910447,0.0016847,69.0535,-0.000492088
142.455,15.1371,0,-0.0895983,0.00121183,70.0542,-0.000462148
143.451,15.0481,0,-0.0886213,0.000736338,71.055,-0.000487993
144.448,14.9598,0,-0.0881331,0.00023522,72.0558,-0.000513456
145.445,14.8718,0,-0.0881591,-0.000291462,73.0566,-0.000539184
146.442,14.7834,0,-0.0887251,-0.000844239,74.0573,-0.000565685
147.439,14.6942,0,-0.0898579,-0.0014241,75.0581,-0.000593373
148.436,14.6036,0,-0.0915853,-0.00203764,76.0589,-0.000687799
149.432,14.5109,0,-0.0940422,-0.00294592,77.0597,-0.00112873
150.428,14.4153,0,-0.0976306,-0.00430056,78.0604,-0.00158085
151.424,14.3153,0,-0.102802,-0.00607972,79.0612,-0.00160707
152.419,14.2094,0,-0.109315,-0.00655841,80.062,0.000662968
153.414,14.0972,0,-0.115159,-0.00472927,81.0628,0.00300125
154.408,13.9804,0,-0.117996,-0.000571465,82.0635,0.00507502
155.401,13.8632,0,-0.115897,0.00489138,83.0643,0.0058215
156.396,13.7509,0,-0.107981,0.0110271,84.0651,0.00640738
157.392,13.6496,0,-0.0936769,0.0174865,85.0659,0.0052612
158.389,13.5653,0,-0.0747194,0.01925,86.0666,-0.00162267
159.387,13.4997,0,-0.0573196,0.014506,87.0674,-0.00771878
160.387,13.4481,0,-0.0475813,0.00417244,88.0682,-0.0115063
161.386,13.4008,0,-0.0483664,-0.00496448,89.069,-0.00684599
162.386,13.349,0,-0.0560481,-0.00968982,90.0697,-0.00266411
163.385,13.2878,0,-0.0664249,-0.010406,91.0705,0.00105573
164.383,13.2162,0,-0.0768177,-0.0108699,92.0713,-0.00198378
165.38,13.1336,0,-0.0892075,-0.014418,93.0721,-0.00515275
166.376,13.0362,0,-0.106798,-0.0213439,94.0728,-0.00881017
167.37,12.9172,0,-0.133631,-0.033592,95.0736,-0.0164191
168.359,12.7641,0,-0.177167,-0.0552729,96.0744,-0.0276111
169.337,12.5555,0,-0.248812,-0.0906683,97.0752,-0.0441924
170.292,12.258,0,-0.363109,-0.137438,98.0759,-0.0443888
171.197,11.8332,0,-0.521027,-0.175836,99.0767,-0.0305023
172.015,11.2581,0,-0.708778,-0.195717,100.077,-0.00883211
172.705,10.5361,0,-0.906238,-0.1958,101.078,0.00960311
173.244,9.69428,0,-1.09411,-0.176613,102.079,0.027692
173.627,8.77097,0,-1.2551,-0.144016,103.08,0.0332542
173.873,7.8017,0,-1.38371,-0.114107,104.081,0.0266887
174.007,6.81035,0,-1.48545,-0.0900409,105.081,0.0217224
174.051,5.8108,0,-1.56531,-0.0702264,106.082,0.0176139
174.024,4.81055,0,-1.62749,-0.0547094,107.083,0.0135891
173.942,3.81323,0,-1.67597,-0.0426728,108.084,0.0106215
173.818,2.8203,0,-1.71374,-0.0331616,109.084,0.00855834
173.66,1.83205,0,-1.74289,-0.0253079,110.085,0.00721464
173.477,0.848118,0,-1.76478,-0.0185977,111.086,0.00624276
173.276,-0.132243,0,-1.78039,-0.0126658,112.087,0.00601617
173.063,-1.11,0,-1.78987,-0.00609194,113.088,0.00711446
172.844,-2.08646,0,-1.79221,0.00159505,114.088,0.00827708
172.626,-3.06329,0,-1.78624,0.0106231,115.089,0.0104068
172.419,-4.04246,0,-1.76926,0.0245065,116.09,0.0176107
172.237,-5.02649,0,-1.73444,0.0466982,117.091,0.0273153
172.102,-6.01797,0,-1.67188,0.0806783,118.091,0.0407746
172.048,-7.01687,0,-1.57071,0.121468,119.092,0.0405163
172.116,-8.01453,0,-1.42927,0.160579,120.093,0.0366883
172.341,-8.9882,0,-1.25167,0.192471,121.094,0.0246829
172.747,-9.90108,0,-1.05115,0.203349,122.095,-0.00436872
173.328,-10.7146,0,-0.854721,0.184821,123.095,-0.030365
174.047,-11.4089,0,-0.687059,0.149506,124.096,-0.0347328
174.862,-11.9882,0,-0.553586,0.118446,125.097,-0.027496
175.74,-12.4665,0,-0.4478,0.093893,126.098,-0.0219181
176.66,-12.8601,0,-0.364062,0.0743696,127.098,-0.0164131
177.607,-13.1837,0,-0.296886,0.0607456,128.099,-0.0111892
178.572,-13.4489,0,-0.241067,0.0513728,129.1,-0.00778119
179.549,-13.6639,0,-0.193165,0.0445811,130.101,-0.00655744
180.535,-13.8351,0,-0.15198,0.0375571,131.102,-0.00756992
181.527,-13.9693,0,-0.118415,0.0292735,132.102,-0.00904736
182.522,-14.0746,0,-0.0939109,0.0195596,133.103,-0.00959595
183.519,-14.1602,0,-0.0788202,0.0109323,134.104,-0.00759885
184.517,-14.2347,0,-0.0713244,0.00441305,135.105,-0.00540993
185.515,-14.3046,0,-0.0692473,6.92436e-05,136.105,-0.00351744
186.514,-14.3744,0,-0.0707542,-0.00289512,137.106,-0.00240433
187.512,-14.4469,0,-0.074668,-0.00473829,138.107,-0.0012768
188.51,-14.5241,0,-0.079864,-0.00548968,139.108,-0.000416855
189.507,-14.6068,0,-0.0855276,-0.00578984,140.108,-0.000183252
190.504,-14.6952,0,-0.0913749,-0.00585723,141.109,4.80631e-05
191.5,-14.7894,0,-0.0971686,-0.00563656,142.11,0.000660479
192.496,-14.8891,0,-0.102229,-0.0042284,143.111,0.00215215
193.491,-14.9929,0,-0.105135,-0.00133189,144.112,0.0036351
194.487,-15.0979,0,-0.104414,0.00291809,145.112,0.00424693
195.482,-15.2001,0,-0.0996112,0.00643491,146.113,0.00278008
196.478,-15.2961,0,-0.0920252,0.00847902,147.114,0.00130328
197.475,-15.3836,0,-0.0831312,0.00907497,148.115,5.62871e-05
198.473,-15.4622,0,-0.0741292,0.00880695,149.115,-0.000591204
199.471,-15.5321,0,-0.0657183,0.00789617,150.116,-0.00122494
200.47,-15.5941,0,-0.0585318,0.00636009,151.117,-0.00187784
201.469,-15.6498,0,-0.0532321,0.00411108,152.118,-0.00259881
202.469,-15.7014,0,-0.05053,0.0011789,153.119,-0.00325982
203.468,-15.752,0,-0.0510891,-0.00228324,154.119,-0.00224068
204.468,-15.8042,0,-0.0529419,0.000144541,155.12,0.00715495
205.467,-15.8555,0,-0.0475407,0.0123936,156.121,0.0176457
206.467,-15.8934,0,-0.0242116,0.0364302,157.122,0.0299178
207.468,-15.8943,0,0.0277431,0.0680422,158.122,0.0337814
208.466,-15.8266,0,0.113801,0.105115,159.123,0.0408074
209.451,-15.6539,0,0.240874,0.150033,160.124,0.0464904
210.399,-15.3364,0,0.412284,0.189642,161.125,0.0291463
211.27,-14.848,0,0.611319,0.202308,162.126,-0.00520957
212.028,-14.1964,0,0.80623,0.183876,163.126,-0.0261255
212.654,-13.4174,0,0.975936,0.154422,164.127,-0.0312714
213.154,-12.551,0,1.11488,0.123507,165.128,-0.029798
213.542,-11.6292,0,1.22484,0.0975472,166.129,-0.022155
213.838,-10.6736,0,1.31244,0.0785211,167.129,-0.0161957
214.058,-9.69754,0,1.38368,0.0645332,168.13,-0.012109
214.214,-8.70919,0,1.44247,0.0531713,169.131,-0.0108108
214.318,-7.71386,0,1.49034,0.0425436,170.132,-0.0105726
214.379,-6.715,0,1.52757,0.0317679,171.133,-0.0110528
214.408,-5.71468,0,1.55398,0.0211465,172.133,-0.0102306
214.416,-4.71395,0,1.57012,0.0111967,173.134,-0.00968979
214.412,-3.71318,0,1.57654,0.00170326,174.135,-0.00929385
214.407,-2.71242,0,1.5736,-0.0076004,175.136,-0.00935202
214.41,-1.71165,0,1.56128,-0.0170581,176.136,-0.00958278
214.43,-0.711094,0,1.53934,-0.0268745,177.137,-0.0100936
214.476,0.28855,0,1.50718,-0.037676,178.138,-0.011788
214.561,1.28567,0,1.46313,-0.0508711,179.139,-0.0148229
214.696,2.27709,0,1.40407,-0.0679584,180.139,-0.0197078
214.899,3.25681,0,1.32531,-0.0900262,181.14,-0.0235389
215.19,4.21406,0,1.22297,-0.114966,182.141,-0.0262707
215.588,5.13132,0,1.0944,-0.142229,183.142,-0.0278252
216.112,5.98256,0,0.93887,-0.167032,184.143,-0.0189842
216.77,6.73534,0,0.765079,-0.17715,185.143,-0.000380834
217.549,7.36164,0,0.590853,-0.168008,186.144,0.0173973
218.421,7.84972,0,0.432786,-0.146748,187.145,0.0241844
219.356,8.20529,0,0.298517,-0.12128,188.146,0.026037
220.327,8.44516,0,0.190081,-0.0957441,189.146,0.0235935
221.317,8.59055,0,0.105022,-0.0751721,190.147,0.0180011
222.315,8.66079,0,0.0381938,-0.0589075,191.148,0.0148319
223.316,8.67191,0,-0.0136517,-0.0450037,192.149,0.0129107
224.316,8.63778,0,-0.0525964,-0.0331822,193.15,0.0107717
225.314,8.5703,0,-0.0807226,-0.0233241,194.15,0.00898689
226.311,8.4794,0,-0.0998227,-0.015101,195.151,0.00742776
227.306,8.37331,0,-0.111487,-0.00847266,196.152,0.00584829
228.3,8.25866,0,-0.117285,-0.00335982,197.153,0.00437676
229.294,8.14054,0,-0.1187,0.000292762,198.153,0.00297087
230.288,8.02262,0,-0.117115,0.00267759,199.154,0.00178721
231.282,7.90726,0,-0.113743,0.00385603,200.155,0.000561875
232.277,7.79564,0,-0.10981,0.00381316,201.156,-0.000465192
233.271,7.68778,0,-0.10623,0.0033395,202.157,-0.000480922
234.267,7.58325,0,-0.103131,0.00285151,203.157,-0.000493856
235.262,7.48156,0,-0.100526,0.00235206,204.158,-0.000502545
236.258,7.38222,0,-0.0984237,0.00184924,205.159,-0.000502069
237.254,7.28471,0,-0.0968242,0.00134773,206.16,-0.000499832
238.25,7.18856,0,-0.0957246,0.00085837,207.16,-0.000394564
239.247,7.09329,0,-0.0949661,0.000753956,208.161,0.000183735
240.243,6.99882,0,-0.0940252,0.00121925,209.162,0.000741059
241.239,6.90562,0,-0.0923467,0.00220473,210.163,0.00102311
242.236,6.81456,0,-0.0897915,0.00274172,211.164,6.37377e-05
243.233,6.72616,0,-0.0871647,0.00236264,212.164,-0.00080644
244.23,6.64005,0,-0.0853394,0.00115277,213.165,-0.00159377
245.227,6.55503,0,-0.0850937,-0.000771838,214.166,-0.00225353
246.224,6.46918,0,-0.0871066,-0.00336386,215.167,-0.00293138
247.221,6.37992,0,-0.0920588,-0.00665227,216.167,-0.00364847
248.217,6.28448,0,-0.0985079,-0.0039006,217.168,0.00980301
249.213,6.18635,0,-0.0950409,0.0133906,218.169,0.0252287
250.21,6.10303,0,-0.0658509,0.0484361,219.17,0.0462971
251.21,6.06966,0,0.00748758,0.0983129,220.17,0.0499523
252.208,6.13462,0,0.130755,0.147722,221.171,0.0479565
253.185,6.34531,0,0.301315,0.191386,222.172,0.0374554
254.105,6.73676,0,0.508678,0.219188,223.173,0.0145187
254.918,7.31651,0,0.729446,0.216069,224.174,-0.0205343
255.59,8.05577,0,0.93101,0.18367,225.174,-0.0385704
256.116,8.90566,0,1.09499,0.143678,226.175,-0.0407121
256.515,9.82262,0,1.21843,0.103141,227.176,-0.0400002
256.818,10.7762,0,1.30245,0.0666745,228.177,-0.0296012
257.055,11.7484,0,1.35664,0.0437209,229.177,-0.016948
257.249,12.7302,0,1.39357,0.0316204,230.178,-0.00766804
257.411,13.7178,0,1.42242,0.0265303,231.179,-0.00430501
257.546,14.7093,0,1.44683,0.0222604,232.18,-0.00431033
257.66,15.7036,0,1.46689,0.0177548,233.181,-0.00476173
257.755,16.6998,0,1.48217,0.0127092,234.181,-0.00512944
257.838,17.6971,0,1.49231,0.00755618,235.182,-0.00519793
257.914,18.695,0,1.49724,0.00225994,236.183,-0.00540173
257.987,19.6931,0,1.49678,-0.00308201,237.184,-0.00461708
258.064,20.691,0,1.49184,-0.00632411,238.184,-0.00180181
258.146,21.6883,0,1.48512,-0.00657841,239.185,0.00133694
258.234,22.6852,0,1.47973,-0.0038336,240.186,0.00331274
258.327,23.6817,0,1.47747,-0.000747294,241.187,0.00283397
258.42,24.6781,0,1.47805,0.00181333,242.188,0.00227818
258.511,25.6747,0,1.48092,0.00387072,243.188,0.00203657
258.599,26.6717,0,1.48587,0.00606417,244.189,0.00234618
258.68,27.6691,0,1.49316,0.00857016,245.19,0.00266629
258.753,28.6672,0,1.50315,0.0115557,246.191,0.0039337
258.814,29.6661,0,1.51724,0.0171672,247.191,0.0073155
258.858,30.6659,0,1.53869,0.0263367,248.192,0.0111192
258.875,31.6665,0,1.57136,0.0397086,249.193,0.0155776
258.852,32.6669,0,1.61966,0.0576713,250.194,0.0207028
258.77,33.6642,0,1.68893,0.0821037,251.194,0.0286994
258.606,34.6511,0,1.78726,0.116086,252.195,0.0374805
258.329,35.6119,0,1.92173,0.151897,253.196,0.0328833
257.911,36.5197,0,2.08837,0.178892,254.197,0.0195389
257.339,37.3391,0,2.27402,0.18866,255.198,-0.00141342
256.624,38.0379,0,2.45804,0.175207,256.198,-0.024457
255.8,38.6029,0,2.6185,0.14338,257.199,-0.0370645
254.902,39.0448,0,2.74343,0.107532,258.2,-0.0310963
253.962,39.387,0,2.83701,0.0808473,259.201,-0.0228308
252.997,39.6517,0,2.90745,0.060789,260.201,-0.0176905
252.018,39.8569,0,2.96011,0.0451852,261.202,-0.0134063
251.03,40.0172,0,2.99927,0.0336792,262.203,-0.00972877
250.038,40.144,0,3.02862,0.0254808,263.204,-0.00674645
249.042,40.2451,0,3.05107,0.0195519,264.205,-0.00560449
248.045,40.3267,0,3.06788,0.0140689,265.205,-0.00538913
247.046,40.3943,0,3.07927,0.00871025,266.206,-0.00533865
246.047,40.4532,0,3.08537,0.00362628,267.207,-0.00449283
245.048,40.5083,0,3.08699,-0.000156767,268.208,-0.00305538
244.048,40.5634,0,3.08555,-0.00246817,269.208,-0.00155474
243.049,40.6209,0,3.08252,-0.00341787,270.209,-0.000572442
242.05,40.6818,0,3.07892,-0.00369206,271.21,2.64468e-05
241.052,40.7463,0,3.07534,-0.003362,272.211,0.000634145
240.053,40.8141,0,3.07237,-0.00254497,273.212,0.000814057
239.055,40.8844,0,3.0702,-0.00180339,274.212,0.000667198
238.057,40.9566,0,3.06871,-0.00121065,275.213,0.000516965
237.059,41.03,0,3.06773,-0.000758419,276.214,0.000403055
236.061,41.1042,0,3.06716,-0.000397765,277.215,0.000317657
235.063,41.1788,0,3.06691,-0.000122698,278.215,0.000232008
234.065,41.2535,0,3.06689,6.50621e-05,279.216,0.000140936
233.067,41.3281,0,3.06701,0.000158588,280.217,4.60431e-05
232.069,41.4026,0,3.06717,0.000157385,281.218,-4.83701e-05
231.071,41.4769,0,3.06729,7.92147e-05,282.219,-8.06821e-05
230.073,41.5512,0,3.06733,6.49051e-06,283.219,-6.4679e-05
229.075,41.6255,0,3.06731,-5.02759e-05,284.22,-4.87737e-05
228.077,41.6998,0,3.06724,-8.79565e-05,285.221,-2.14151e-05
227.079,41.7741,0,3.06715,-9.1028e-05,286.222,1.53118e-05
226.081,41.8486,0,3.06707,-5.7249e-05,287.222,5.22134e-05
225.083,41.9232,0,3.06704,2.02804e-06,288.223,4.75802e-05
224.085,41.9977,0,3.06706,3.03539e-05,289.224,9.02872e-06
223.087,42.0722,0,3.06709,2.01168e-05,290.225,-2.94774e-05
222.089,42.1467,0,3.06709,-1.8408e-05,291.225,-3.07068e-05
221.091,42.2212,0,3.06706,-3.44323e-05,292.226,-1.31095e-06
220.093,42.2957,0,3.06703,-2.1015e-05,293.227,2.81318e-05
219.095,42.3703,0,3.06703,1.57092e-05,294.228,3.50352e-05
218.097,42.4448,0,3.06706,4.48592e-05,295.229,2.32176e-05
217.099,42.5193,0,3.06712,6.21831e-05,296.229,1.14073e-05
216.101,42.5937,0,3.06718,6.93783e-05,297.23,5.77805e-06
215.103,42.6681,0,3.06725,7.49232e-05,298.231,5.30385e-06
214.105,42.7424,0,3.06733,7.99958e-05,299.232,4.83434e-06
213.107,42.8166,0,3.06741,7.88212e-05,300.232,-1.70047e-05
212.109,42.8907,0,3.06748,4.18115e-05,301.233,-5.69455e-05
211.111,42.9648,0,3.06748,-3.51723e-05,302.234,-9.69348e-05
210.113,43.039,0,3.0674,-0.000136831,303.235,-7.92236e-05
209.115,43.1132,0,3.06723,-0.000181846,304.236,-1.06518e-05
208.117,43.1877,0,3.06705,-0.000157953,305.236,5.84949e-05
207.119,43.2623,0,3.06693,-7.97748e-05,306.237,7.08877e-05
206.121,43.3369,0,3.06688,-2.80849e-05,307.238,3.23848e-05
205.123,43.4117,0,3.06687,-1.49721e-05,308.239,-6.17511e-06
204.125,43.4864,0,3.06684,-3.1941e-05,309.239,-1.25722e-05
203.127,43.5611,0,3.06681,-3.33671e-05,310.24,9.71504e-06
202.129,43.6359,0,3.06678,-1.2505e-05,311.241,3.19761e-05
201.131,43.7107,0,3.06679,5.6652e-05,312.242,0.000153241
200.133,43.7854,0,3.06696,0.000315519,313.243,0.000364085
199.135,43.8598,0,3.0675,0.000785208,314.243,0.000574355
198.137,43.9334,0,3.0686,0.00144799,315.244,0.000719751
197.138,44.0056,0,3.07043,0.00221128,316.245,0.000805242
196.14,44.0755,0,3.07306,0.00305886,317.246,0.000888149
195.142,44.1423,0,3.07656,0.00392187,318.246,0.000712203
194.143,44.2053,0,3.08078,0.0044253,319.247,0.000293467
193.144,44.2639,0,3.08528,0.00450905,320.248,-0.000125741
192.144,44.318,0,3.08962,0.00390626,321.249,-0.0016119
191.145,44.3684,0,3.0923,0.00104696,322.25,-0.00408366
190.145,44.418,0,3.0909,-0.00423779,323.25,-0.00646874
189.146,44.472,0,3.08304,-0.0118031,324.251,-0.00843359
188.147,44.5379,0,3.06674,-0.0210667,325.252,-0.0101492
187.151,44.6251,0,3.04022,-0.0323142,326.253,-0.0124583
186.157,44.7446,0,3.00119,-0.0459795,327.253,-0.0139607
185.17,44.9097,0,2.94826,-0.0597343,328.254,-0.0136683
184.195,45.1334,0,2.88157,-0.0736488,329.255,-0.014318
183.239,45.4284,0,2.80039,-0.0891295,330.256,-0.0176593
182.313,45.8078,0,2.70142,-0.109548,331.256,-0.0229238
181.435,46.2864,0,2.57976,-0.133892,332.257,-0.0247232
180.629,46.8777,0,2.43436,-0.154956,333.258,-0.0148257
179.923,47.5855,0,2.27447,-0.161928,334.259,0.000880872
179.339,48.3971,0,2.11512,-0.154528,335.26,0.0130633
178.886,49.2887,0,1.96961,-0.134033,336.26,0.0263939
178.556,50.2328,0,1.84979,-0.104644,337.261,0.0311325
178.326,51.2064,0,1.76075,-0.0734262,338.262,0.029935
178.169,52.1946,0,1.70134,-0.0460964,339.263,0.0251392
178.057,53.1891,0,1.66735,-0.0221655,340.263,0.0231648
177.968,54.1859,0,1.65681,0.00126155,341.264,0.0240972
177.877,55.1826,0,1.67059,0.0269115,342.265,0.0278789
177.759,56.1763,0,1.71274,0.0588485,343.266,0.0370646
177.582,57.1609,0,1.79272,0.1039,344.267,0.0540325
177.303,58.1212,0,1.92457,0.159977,345.267,0.0559781
176.875,59.0242,0,2.11041,0.20774,346.268,0.0337368
176.272,59.8209,0,2.32754,0.218189,347.269,-0.0127254
