x, y, z, theta
-15.5292,-83.9926,0,2.83993
-15.8296,-83.8992,0,2.85157
-16.1432,-83.8056,0,2.86053
-16.4334,-83.7218,0,2.86486
-16.736,-83.6358,0,2.86496
-17.0387,-83.5499,0,2.86417
-17.3413,-83.4637,0,2.8641
-17.6561,-83.3741,0,2.864
-17.9708,-83.2844,0,2.85427
-18.2912,-83.1897,0,2.8644
-18.606,-83.1001,0,2.86528
-18.9208,-83.0109,0,2.86668
-19.2478,-82.9186,0,2.8682
-19.575,-82.8269,0,2.8698
-19.9266,-82.7289,0,2.87216
-20.2663,-82.6351,0,2.87389
-20.6304,-82.5352,0,2.87605
-20.9948,-82.4361,0,2.87803
-21.3836,-82.3312,0,2.88002
-21.7362,-82.2368,0,2.88141
-22.1151,-82.1359,0,2.88345
-22.5045,-82.0331,0,2.88556
-22.9306,-81.9216,0,2.88712
-23.3326,-81.817,0,2.88825
-23.7712,-81.7035,0,2.88938
-24.1856,-81.5967,0,2.89002
-24.6001,-81.4901,0,2.89061
-25.0634,-81.3714,0,2.89107
-25.4779,-81.2653,0,2.89069
-25.8802,-81.1622,0,2.89065
-26.3313,-81.0465,0,2.88995
-26.7458,-80.94,0,2.89074
-27.1645,-80.8327,0,2.88957
-27.5667,-80.7291,0,2.88921
-27.9688,-80.6254,0,2.88888
-28.4075,-80.5121,0,2.88797
-28.8218,-80.4047,0,2.88722
-29.2237,-80.3002,0,2.88678
-29.6378,-80.1924,0,2.88602
-30.0519,-80.0842,0,2.88567
-30.4658,-79.9759,0,2.88499
-30.8797,-79.8673,0,2.88454
-31.2998,-79.7568,0,2.88522
-31.7624,-79.6356,0,2.8861
-32.1765,-79.5274,0,2.88661
-32.6636,-79.4004,0,2.88716
-33.1508,-79.2737,0,2.8867
-33.6258,-79.15,0,2.88622
-34.1373,-79.0164,0,2.88607
-34.4295,-78.9401,0,2.88584
-34.9409,-78.8064,0,2.88536
-35.2331,-78.7298,0,2.88526
-35.5253,-78.6532,0,2.88459
-36.0853,-78.5061,0,2.88454
-36.6574,-78.3557,0,2.88435
-37.2245,-78.2065,0,2.88427
-37.8331,-78.0463,0,2.88448
-38.1252,-77.9695,0,2.88449
-38.7095,-77.8159,0,2.88549
-39.0139,-77.7362,0,2.88591
-39.367,-77.6439,0,2.88537
-39.6836,-77.561,0,2.8862
-39.9758,-77.4846,0,2.88624
-40.3168,-77.3956,0,2.88602
-40.6212,-77.3161,0,2.88656
-40.9744,-77.224,0,2.88584
-41.2788,-77.1444,0,2.88491
-41.644,-77.0486,0,2.88442
-41.9727,-76.9621,0,2.88383
-42.3013,-76.8755,0,2.88327
-42.642,-76.7855,0,2.88275
-42.9826,-76.6953,0,2.88234
-43.3233,-76.6049,0,2.88193
-43.6274,-76.5241,0,2.88202
-43.9369,-76.4419,0,2.88163
-44.3018,-76.3449,0,2.88121
-44.6301,-76.2574,0,2.88078
-44.9342,-76.1763,0,2.8808
-45.3111,-76.0757,0,2.8807
-45.6638,-75.9815,0,2.88092
-46.0043,-75.8907,0,2.88158
-46.3327,-75.8033,0,2.88165
-46.6732,-75.7127,0,2.88179
-47.0138,-75.6222,0,2.88228
-47.3423,-75.5351,0,2.88256
-47.6829,-75.4448,0,2.88315
-48.0236,-75.3547,0,2.88361
-48.3522,-75.268,0,2.88393
-48.6808,-75.1814,0,2.88416
-49.0094,-75.0949,0,2.88456
-49.3381,-75.0085,0,2.88446
-49.6667,-74.9221,0,2.88503
-49.9833,-74.8391,0,2.88565
-50.2755,-74.7626,0,2.88556
-50.6042,-74.6766,0,2.88557
-51.2114,-74.5176,0,2.88551
-51.5279,-74.4348,0,2.88539
-51.8445,-74.3518,0,2.8854
-52.161,-74.2689,0,2.88585
-52.4776,-74.1861,0,2.88591
-52.782,-74.1066,0,2.88614
-53.0865,-74.027,0,2.88648
-53.391,-73.9476,0,2.88674
-53.7076,-73.8651,0,2.88711
-54,-73.7891,0,2.8873
-54.3167,-73.7068,0,2.88748
-54.609,-73.6308,0,2.88784
-54.9014,-73.555,0,2.88824
-55.206,-73.4762,0,2.8885
-55.5107,-73.3974,0,2.8886
-55.8031,-73.3218,0,2.8892
-56.0956,-73.2463,0,2.88928
-56.3881,-73.1709,0,2.88971
-56.9488,-73.0266,0,2.89024
-57.2414,-72.9515,0,2.89011
-57.5339,-72.8763,0,2.89124
-57.8268,-72.8014,0,2.89094
-58.1194,-72.7265,0,2.89102
-58.412,-72.6516,0,2.89113
-58.9729,-72.5081,0,2.89176
-59.5217,-72.3681,0,2.89196
-60.0705,-72.2282,0,2.89261
-60.6072,-72.0917,0,2.89293
-61.1196,-71.9616,0,2.89365
-61.5954,-71.8412,0,2.89423
-62.0591,-71.7241,0,2.89478
-62.4985,-71.6134,0,2.89511
-62.9256,-71.5059,0,2.8968
-63.3525,-71.3993,0,2.89598
-63.7919,-71.2891,0,2.89625
-64.2803,-71.1668,0,2.89675
-64.7565,-71.0478,0,2.89699
-65.2572,-70.9229,0,2.89735
-65.7701,-70.7951,0,2.89722
-66.2952,-70.6641,0,2.89722
-66.8204,-70.5332,0,2.89711
-67.3699,-70.3961,0,2.89704
-67.9316,-70.2559,0,2.89701
-68.4933,-70.1157,0,2.89696
-69.0512,-69.9764,0,2.89684
-69.6251,-69.8331,0,2.8965
-69.9182,-69.7598,0,2.8967
-70.2112,-69.6866,0,2.89643
-70.5164,-69.6102,0,2.89653
-70.8217,-69.5338,0,2.89631
-71.1147,-69.4605,0,2.89592
-71.4321,-69.3809,0,2.89604
-71.7251,-69.3075,0,2.89627
-72.0426,-69.228,0,2.89627
-72.36,-69.1485,0,2.89648
-72.6653,-69.0722,0,2.89658
-72.9705,-68.9958,0,2.89651
-73.288,-68.9165,0,2.89679
-73.6054,-68.8371,0,2.89691
-73.9107,-68.7609,0,2.89653
-74.2282,-68.6815,0,2.89677
-74.5456,-68.6022,0,2.89687
-74.8631,-68.5229,0,2.89673
-75.1806,-68.4436,0,2.8972
-75.4859,-68.3675,0,2.89799
-76.0841,-68.2188,0,2.89801
-76.4017,-68.1399,0,2.89838
-76.7193,-68.0611,0,2.89851
-77.0491,-67.9793,0,2.89882
-77.3667,-67.9006,0,2.89906
-77.6966,-67.819,0,2.89925
-78.0143,-67.7405,0,2.89929
-78.3442,-67.6589,0,2.89951
-78.6619,-67.5805,0,2.89985
-78.9918,-67.4991,0,2.89992
-79.3218,-67.4178,0,2.9
-79.6395,-67.3395,0,2.90033
-79.9817,-67.2553,0,2.90062
-80.2995,-67.1772,0,2.90052
-80.6294,-67.0961,0,2.90045
-80.9594,-67.0149,0,2.90045
-81.2894,-66.9338,0,2.90047
-81.6072,-66.8556,0,2.90028
-81.925,-66.7774,0,2.90043
-82.255,-66.6963,0,2.90024
-82.5849,-66.6151,0,2.9
-82.9098,-66.535,0,2.89985
-83.2276,-66.4566,0,2.9001
-83.5697,-66.3724,0,2.90033
-83.8997,-66.2912,0,2.90015
-84.2297,-66.2099,0,2.89971
-84.5718,-66.1255,0,2.90008
-84.9018,-66.0442,0,2.90053
-85.244,-65.9601,0,2.90056
-85.5862,-65.876,0,2.90057
-85.9162,-65.7949,0,2.90035
-86.2584,-65.7107,0,2.90042
-86.6006,-65.6265,0,2.90046
-86.9306,-65.5454,0,2.90028
-87.2728,-65.4612,0,2.90028
-87.615,-65.3769,0,2.90021
-87.9449,-65.2957,0,2.90008
-88.2871,-65.2114,0,2.90002
-88.6293,-65.1271,0,2.89979
-88.9715,-65.0427,0,2.89941
-89.3136,-64.9582,0,2.89931
-89.6557,-64.8737,0,2.89972
-89.9978,-64.7892,0,2.8996
-90.3084,-64.7126,0,2.89908
-90.6505,-64.628,0,2.8992
-90.9926,-64.5434,0,2.89939
-91.3347,-64.4589,0,2.89908
-91.6891,-64.3712,0,2.89901
-92.0311,-64.2866,0,2.8994
-92.3733,-64.202,0,2.89943
-92.7154,-64.1175,0,2.89983
-93.0576,-64.0331,0,2.90024
-93.3997,-63.9489,0,2.89982
-93.7419,-63.8645,0,2.8999
-94.0718,-63.7832,0,2.8998
-94.4018,-63.7018,0,2.89956
-94.7561,-63.6144,0,2.89942
-95.0983,-63.5299,0,2.89944
-95.4404,-63.4454,0,2.89931
-95.7947,-63.3578,0,2.8991
-96.1368,-63.2732,0,2.89941
-96.4789,-63.1886,0,2.89918
-96.8333,-63.101,0,2.89918
-97.1754,-63.0164,0,2.89944
-97.493,-62.938,0,2.89841
-97.8504,-62.8493,0,2.89918
-98.1926,-62.7647,0,2.89943
-98.5591,-62.6742,0,2.89975
-98.9013,-62.5898,0,2.89972
-99.2434,-62.5053,0,2.89969
-99.5856,-62.4209,0,2.8998
-99.9399,-62.3335,0,2.89983
-100.282,-62.2492,0,2.89983
-100.6,-62.1708,0,2.89982
-100.966,-62.0804,0,2.89952
-101.309,-61.9959,0,2.89948
-101.651,-61.9114,0,2.89963
-102.017,-61.821,0,2.89948
-102.359,-61.7365,0,2.89977
-102.714,-61.6491,0,2.90007
-103.068,-61.5618,0,2.90024
-103.41,-61.4775,0,2.90051
-103.765,-61.3904,0,2.90053
-104.107,-61.3063,0,2.9007
-104.474,-61.2162,0,2.90057
-104.816,-61.1321,0,2.90052
-105.158,-61.0479,0,2.90231
-105.493,-60.9663,0,2.90039
-105.835,-60.8821,0,2.90024
-106.19,-60.7948,0,2.90053
-106.507,-60.7167,0,2.90043
-106.85,-60.6325,0,2.90072
-107.192,-60.5485,0,2.90122
-107.534,-60.4646,0,2.90122
-107.864,-60.3837,0,2.90149
-108.206,-60.2999,0,2.90154
-108.549,-60.2161,0,2.90185
-108.891,-60.1324,0,2.90186
-109.209,-60.0547,0,2.90248
-109.551,-59.9713,0,2.90279
-109.869,-59.8938,0,2.90248
-110.187,-59.8163,0,2.90283
-110.517,-59.736,0,2.90301
-110.847,-59.6557,0,2.90337
-111.153,-59.5814,0,2.90384
-111.471,-59.5043,0,2.90372
-111.777,-59.4302,0,2.90368
-112.083,-59.356,0,2.90381
-112.389,-59.2819,0,2.90527
-112.7,-59.2071,0,2.90368
-113.262,-59.0706,0,2.90357
-113.556,-58.9994,0,2.90317
-114.118,-58.8627,0,2.90301
-114.681,-58.7258,0,2.90289
-115.219,-58.5949,0,2.90234
-115.745,-58.4667,0,2.90274
-116.258,-58.3416,0,2.9027
-116.747,-58.2225,0,2.90258
-117.273,-58.0943,0,2.90269
-117.811,-57.9633,0,2.90298
-118.362,-57.8294,0,2.9037
-118.657,-57.7578,0,2.90252
-119.195,-57.6266,0,2.90257
-119.489,-57.5551,0,2.90245
-119.794,-57.4806,0,2.90228
-120.1,-57.406,0,2.90177
-120.394,-57.3343,0,2.90142
-120.711,-57.2564,0,2.90143
-121.029,-57.1786,0,2.90096
-121.347,-57.1006,0,2.90044
-121.665,-57.0224,0,2.90066
-121.983,-56.9444,0,2.90079
-122.313,-56.8633,0,2.90038
-122.643,-56.7822,0,2.90018
-122.972,-56.7009,0,2.90012
-123.315,-56.6166,0,2.89989
-123.657,-56.5323,0,2.89945
-123.987,-56.4508,0,2.89949
-124.329,-56.3663,0,2.89922
-124.671,-56.2817,0,2.89844
-125.025,-56.1939,0,2.89837
-125.343,-56.1151,0,2.89778
-125.659,-56.0365,0,2.89785
-126.013,-55.9484,0,2.89793
-126.367,-55.8604,0,2.89789
-126.733,-55.7692,0,2.8977
-127.075,-55.6841,0,2.89806
-127.442,-55.5931,0,2.89792
-127.808,-55.502,0,2.89772
-128.175,-55.4108,0,2.89777
-128.541,-55.3197,0,2.89777
-128.908,-55.2285,0,2.89752
-129.286,-55.1342,0,2.89751
-129.652,-55.043,0,2.89736
-130.019,-54.9517,0,2.89746
-130.385,-54.8604,0,2.89722
-130.752,-54.7691,0,2.89718
-131.142,-54.6716,0,2.89716
-131.497,-54.5833,0,2.89693
-131.863,-54.4918,0,2.89697
-132.229,-54.4004,0,2.89704
-132.608,-54.3059,0,2.89681
-132.986,-54.2113,0,2.89671
-133.377,-54.1137,0,2.89587
-133.756,-54.0187,0,2.89671
-134.147,-53.9211,0,2.8969
-134.513,-53.8296,0,2.8964
-134.904,-53.7318,0,2.89627
-135.282,-53.6371,0,2.8962
-135.661,-53.5423,0,2.89593
-136.051,-53.4443,0,2.89629
-136.43,-53.3496,0,2.89621
-136.82,-53.2517,0,2.89584
-137.211,-53.1538,0,2.89573
-137.577,-53.0619,0,2.89581
-137.943,-52.97,0,2.89589
-138.334,-52.872,0,2.8957
-138.725,-52.774,0,2.89547
-139.115,-52.6759,0,2.89569
-139.506,-52.5778,0,2.89558
-139.897,-52.4797,0,2.89518
-140.275,-52.3846,0,2.89514
-140.666,-52.2863,0,2.89526
-141.056,-52.1881,0,2.89496
-141.447,-52.0898,0,2.89478
-141.825,-51.9945,0,2.8934
-142.17,-51.907,0,2.89489
-142.561,-51.8087,0,2.89482
-142.939,-51.7133,0,2.8947
-143.317,-51.618,0,2.89449
-143.708,-51.5195,0,2.89463
-144.074,-51.4272,0,2.89453
-144.465,-51.3287,0,2.89442
-144.843,-51.2332,0,2.89451
-145.221,-51.1378,0,2.89437
-145.612,-51.0392,0,2.89428
-145.99,-50.9437,0,2.89463
-146.38,-50.8453,0,2.89429
-146.771,-50.7467,0,2.89395
-147.149,-50.651,0,2.8944
-147.528,-50.5556,0,2.89456
-147.918,-50.4571,0,2.89424
-148.309,-50.3585,0,2.89457
-148.687,-50.2631,0,2.89475
-149.065,-50.1678,0,2.89475
-149.456,-50.0694,0,2.89503
-149.846,-49.9711,0,2.89518
-150.212,-49.879,0,2.89353
-150.592,-49.7829,0,2.8951
-150.97,-49.6877,0,2.89523
-151.348,-49.5926,0,2.89505
-151.739,-49.4943,0,2.895
-152.129,-49.396,0,2.89501
-152.508,-49.3008,0,2.89531
-152.886,-49.2056,0,2.89558
-153.277,-49.1075,0,2.89556
-153.667,-49.0094,0,2.89532
-154.046,-48.9143,0,2.89536
-154.436,-48.8162,0,2.89526
-154.827,-48.718,0,2.89506
-155.193,-48.6258,0,2.89461
-155.584,-48.5273,0,2.89434
-155.974,-48.4288,0,2.89455
-156.34,-48.3364,0,2.89459
-156.706,-48.2441,0,2.89439
-157.085,-48.1487,0,2.89395
-157.475,-48.0499,0,2.8939
-157.866,-47.9512,0,2.89374
-158.232,-47.8586,0,2.89303
-158.622,-47.7595,0,2.8927
-158.982,-47.6681,0,2.89224
-159.36,-47.5718,0,2.8922
-159.738,-47.4755,0,2.89206
-160.128,-47.376,0,2.89183
-160.494,-47.2827,0,2.89208
-160.884,-47.1833,0,2.892
-161.25,-47.09,0,2.89215
-161.628,-46.9937,0,2.89217
-162.006,-46.8974,0,2.89123
-162.36,-46.8069,0,2.89098
-162.726,-46.7133,0,2.89116
-163.092,-46.6197,0,2.89034
-163.469,-46.5227,0,2.88991
-163.847,-46.4256,0,2.88951
-164.213,-46.3314,0,2.88862
-164.579,-46.2369,0,2.88861
-164.944,-46.1424,0,2.88845
-165.31,-46.0478,0,2.88772
-165.675,-45.953,0,2.88776
-166.041,-45.8582,0,2.88777
-166.406,-45.7634,0,2.88739
-166.759,-45.6716,0,2.8881
-167.099,-45.5835,0,2.88768
-167.465,-45.4887,0,2.88728
-167.83,-45.3937,0,2.88735
-168.171,-45.305,0,2.88762
-168.525,-45.2133,0,2.88753
-168.878,-45.1216,0,2.88698
-169.231,-45.0297,0,2.88699
-169.584,-44.9377,0,2.8871
-169.937,-44.8459,0,2.88703
-170.279,-44.7571,0,2.8873
-170.644,-44.6621,0,2.88761
-170.985,-44.5736,0,2.88778
-171.351,-44.4788,0,2.88812
-171.692,-44.3904,0,2.88796
-172.033,-44.302,0,2.88777
-172.374,-44.2135,0,2.88768
-172.715,-44.125,0,2.88771
-173.056,-44.0365,0,2.88767
-173.385,-43.9511,0,2.88772
-173.714,-43.8658,0,2.88783
-174.043,-43.7804,0,2.88786
-174.347,-43.7015,0,2.88846
-174.652,-43.6227,0,2.88808
-174.957,-43.5437,0,2.88842
-175.554,-43.3893,0,2.8886
-175.846,-43.3137,0,2.88834
-176.139,-43.238,0,2.88805
-176.711,-43.0896,0,2.8884
-177.247,-42.9509,0,2.88783
-177.54,-42.8751,0,2.88783
-178.076,-42.7361,0,2.88813
-178.612,-42.5972,0,2.88847
-179.148,-42.4585,0,2.88839
-179.684,-42.3198,0,2.88887
-180.22,-42.1813,0,2.88982
-180.775,-42.0387,0,2.8896
-181.311,-41.9006,0,2.8897
-181.835,-41.7657,0,2.89032
-182.128,-41.6906,0,2.89025
-182.688,-41.5466,0,2.89069
-183.249,-41.4029,0,2.89076
-183.81,-41.2592,0,2.8907
-184.103,-41.1842,0,2.89095
-184.395,-41.1093,0,2.89121
-184.968,-40.9627,0,2.89132
-185.261,-40.8879,0,2.89187
-185.566,-40.8102,0,2.89177
-185.859,-40.7355,0,2.89197
-186.164,-40.6577,0,2.89241
-186.456,-40.5833,0,2.89261
-186.749,-40.5088,0,2.89404
-187.053,-40.4321,0,2.89289
-187.638,-40.2834,0,2.893
-187.931,-40.2091,0,2.89366
-188.248,-40.1288,0,2.89376
-188.553,-40.0516,0,2.89377
-188.858,-39.9744,0,2.89453
-189.163,-39.8975,0,2.89463
-189.481,-39.8175,0,2.89484
-189.786,-39.7406,0,2.89517
-190.091,-39.6639,0,2.89545
-190.408,-39.5841,0,2.89612
-190.726,-39.5046,0,2.89656
-191.043,-39.4252,0,2.89666
-191.36,-39.3459,0,2.89765
-191.678,-39.2668,0,2.89807
-191.996,-39.1879,0,2.8984
-192.313,-39.1091,0,2.89884
-192.655,-39.0244,0,2.89935
-192.973,-38.9459,0,2.89988
-193.278,-38.8706,0,2.90051
-193.621,-38.7865,0,2.90208
-193.919,-38.7135,0,2.90093
-194.262,-38.6295,0,2.90175
-194.592,-38.5488,0,2.90238
-194.934,-38.4653,0,2.90245
-195.264,-38.3848,0,2.90269
-195.594,-38.3044,0,2.90335
-195.937,-38.2212,0,2.90344
-196.279,-38.1381,0,2.90342
-196.597,-38.0609,0,2.90381
-196.94,-37.9779,0,2.90415
-197.282,-37.895,0,2.90446
-197.6,-37.8181,0,2.90446
-197.943,-37.7353,0,2.90443
-198.273,-37.6555,0,2.90453
-198.604,-37.5757,0,2.905
-198.934,-37.496,0,2.90508
-199.264,-37.4164,0,2.9049
-199.582,-37.3397,0,2.90494
-199.901,-37.263,0,2.90468
-200.206,-37.1891,0,2.90447
-200.549,-37.1063,0,2.90467
-200.867,-37.0295,0,2.90471
-201.489,-36.8794,0,2.90441
-201.819,-36.7995,0,2.90448
-202.137,-36.7227,0,2.90419
-202.455,-36.6457,0,2.9041
-202.773,-36.5687,0,2.9043
-203.104,-36.4888,0,2.90409
-203.422,-36.4119,0,2.9039
-203.74,-36.3348,0,2.90365
-204.058,-36.2577,0,2.90364
-204.376,-36.1805,0,2.90331
-204.694,-36.1033,0,2.90307
-205,-36.029,0,2.90273
-205.318,-35.9515,0,2.90268
-205.635,-35.8741,0,2.90219
-205.941,-35.7995,0,2.90224
-206.247,-35.7249,0,2.9022
-206.54,-35.6533,0,2.90179
-206.858,-35.5755,0,2.90174
-207.176,-35.4978,0,2.90152
-207.482,-35.423,0,2.90127
-207.787,-35.3481,0,2.90114
-208.125,-35.2652,0,2.90104
-208.431,-35.1903,0,2.90106
-208.749,-35.1123,0,2.90061
-209.054,-35.0372,0,2.90031
-209.36,-34.962,0,2.9001
-209.678,-34.8838,0,2.89953
-209.971,-34.8114,0,2.89918
-210.288,-34.7328,0,2.89924
-210.606,-34.6543,0,2.89906
-210.899,-34.5817,0,2.89882
-211.217,-34.5031,0,2.89868
-211.522,-34.4274,0,2.89851
-211.84,-34.3486,0,2.89839
-212.133,-34.2759,0,2.89853
-212.439,-34.2001,0,2.89864
-212.744,-34.1245,0,2.89841
-213.049,-34.0487,0,2.89832
-213.355,-33.9729,0,2.89822
-213.672,-33.894,0,2.89817
-213.978,-33.8182,0,2.89814
-214.283,-33.7424,0,2.89779
-214.601,-33.6634,0,2.8976
-215.178,-33.5195,0,2.89704
-215.484,-33.4433,0,2.89638
-215.801,-33.3639,0,2.89593
-216.106,-33.2874,0,2.89563
-216.412,-33.2108,0,2.8947
-216.729,-33.1308,0,2.89423
-217.034,-33.0537,0,2.8938
-217.351,-32.9735,0,2.89305
-217.656,-32.8961,0,2.89261
-217.973,-32.8154,0,2.89207
-218.266,-32.7408,0,2.89156
-218.583,-32.6599,0,2.89139
-218.888,-32.582,0,2.89105
-219.205,-32.5008,0,2.89071
-219.522,-32.4196,0,2.89073
-219.839,-32.3384,0,2.89035
-220.156,-32.257,0,2.89008
-220.473,-32.1756,0,2.89026
-220.79,-32.0942,0,2.88993
-221.107,-32.0127,0,2.8897
-221.424,-31.9312,0,2.89096
-221.754,-31.8465,0,2.88934
-222.071,-31.7648,0,2.88905
-222.388,-31.6831,0,2.88904
-222.705,-31.6013,0,2.88855
-223.022,-31.5194,0,2.88814
-223.338,-31.4373,0,2.88814
-223.655,-31.3553,0,2.88763
-223.972,-31.2731,0,2.88709
-224.264,-31.197,0,2.88734
-224.581,-31.1147,0,2.88734
-224.898,-31.0324,0,2.8871
-225.202,-30.9532,0,2.88728
-225.519,-30.8709,0,2.88741
-225.835,-30.7886,0,2.88774
-226.152,-30.7064,0,2.88779
-226.469,-30.6243,0,2.88788
-226.774,-30.5453,0,2.88833
-227.09,-30.4633,0,2.88847
-227.407,-30.3814,0,2.88864
-227.724,-30.2995,0,2.88877
-228.029,-30.2208,0,2.88882
-228.345,-30.1389,0,2.88966
-228.918,-29.9915,0,2.88987
-229.235,-29.91,0,2.88998
-229.552,-29.8285,0,2.89001
-229.869,-29.747,0,2.8904
-230.186,-29.6657,0,2.89092
-230.491,-29.5876,0,2.89083
-230.808,-29.5065,0,2.89058
-231.113,-29.4283,0,2.89067
-231.417,-29.3502,0,2.89063
-231.734,-29.2689,0,2.89052
-232.051,-29.1876,0,2.89086
-232.368,-29.1064,0,2.89114
-232.685,-29.0253,0,2.89072
-233.002,-28.9441,0,2.89022
-233.319,-28.8627,0,2.89067
-233.636,-28.7814,0,2.89099
-233.953,-28.7003,0,2.89087
-234.283,-28.616,0,2.891
-234.612,-28.5317,0,2.89104
-234.929,-28.4506,0,2.89112
-235.246,-28.3695,0,2.89142
-235.579,-28.2842,0,2.89139
-235.896,-28.2032,0,2.8918
-236.214,-28.1223,0,2.89148
-236.531,-28.0413,0,2.89165
-236.835,-27.9635,0,2.8918
-237.153,-27.8826,0,2.89175
-237.47,-27.8017,0,2.8917
-237.774,-27.7239,0,2.89201
-238.092,-27.643,0,2.89218
-238.396,-27.5654,0,2.89124
-238.701,-27.4874,0,2.89191
-239.006,-27.4097,0,2.89239
-239.311,-27.3321,0,2.89237
-239.616,-27.2545,0,2.89246
-239.921,-27.1769,0,2.8926
-240.214,-27.1024,0,2.89214
-240.519,-27.0248,0,2.89225
-240.811,-26.9502,0,2.89285
-241.104,-26.8759,0,2.89323
-241.397,-26.8016,0,2.89323
-241.958,-26.6593,0,2.89322
-242.253,-26.5844,0,2.89356
-242.546,-26.5103,0,2.8932
-243.095,-26.371,0,2.89318
-243.656,-26.2287,0,2.89363
-244.205,-26.0897,0,2.89378
-244.755,-25.9507,0,2.89377
-245.291,-25.8149,0,2.89382
-245.828,-25.6791,0,2.89385
-246.329,-25.5526,0,2.894
-246.829,-25.4261,0,2.89396
-247.305,-25.3058,0,2.89391
-247.768,-25.1885,0,2.89361
-248.215,-25.0753,0,2.8935
-248.667,-24.961,0,2.89312
-249.069,-24.8588,0,2.89263
-249.484,-24.7534,0,2.89236
-249.887,-24.651,0,2.89187
-250.24,-24.5607,0,2.8915
-250.582,-24.4735,0,2.89115
-250.899,-24.3924,0,2.89086
-251.191,-24.3175,0,2.8902
-251.581,-24.2173,0,2.8893
-251.93,-24.1276,0,2.88892
-252.295,-24.0332,0,2.88873
-252.6,-23.9545,0,2.88835
-252.929,-23.8693,0,2.88771
-253.221,-23.7935,0,2.88775
-253.565,-23.7043,0,2.88678
-253.93,-23.6091,0,2.88646
-254.32,-23.5075,0,2.88604
-254.612,-23.4312,0,2.88612
-254.953,-23.3421,0,2.88602
-255.306,-23.2498,0,2.88561
-255.696,-23.1478,0,2.88543
-256.122,-23.0362,0,2.8855
-256.56,-22.9215,0,2.88574
-257.018,-22.8018,0,2.88604
-257.505,-22.6745,0,2.88645
-258.016,-22.5411,0,2.88738
-258.552,-22.4018,0,2.88823
-258.845,-22.3261,0,2.88892
-259.405,-22.1814,0,2.89005
-259.698,-22.1062,0,2.89099
-260.283,-21.9564,0,2.89201
-260.576,-21.8818,0,2.89267
-260.869,-21.8074,0,2.89302
-261.186,-21.7269,0,2.89397
-261.784,-21.5757,0,2.89467
-262.101,-21.4957,0,2.89492
-262.418,-21.4158,0,2.89527
-262.724,-21.3391,0,2.89653
-263.326,-21.1883,0,2.89668
-263.656,-21.1059,0,2.89707
-263.986,-21.0237,0,2.89694
-264.316,-20.9413,0,2.89716
-264.645,-20.8591,0,2.89768
-264.975,-20.777,0,2.89825
-265.317,-20.6921,0,2.8982
-265.647,-20.6102,0,2.89827
-265.977,-20.5284,0,2.89865
-266.319,-20.4436,0,2.89897
-266.661,-20.3589,0,2.89909
-267.003,-20.2743,0,2.8994
-267.333,-20.1928,0,2.89966
-267.663,-20.1114,0,2.89964
-268.005,-20.0269,0,2.89972
-268.347,-19.9425,0,2.90025
-268.677,-19.8613,0,2.90029
-269.019,-19.7771,0,2.90027
-269.361,-19.6929,0,2.90048
-269.704,-19.6087,0,2.90111
-270.046,-19.5248,0,2.90093
-270.396,-19.4389,0,2.90154
-270.75,-19.3521,0,2.90153
-271.093,-19.2683,0,2.90155
-271.435,-19.1845,0,2.90178
-271.777,-19.1008,0,2.90245
-272.132,-19.0144,0,2.90258
-272.474,-18.931,0,2.90215
-272.829,-18.8444,0,2.9026
-273.184,-18.758,0,2.90334
-273.526,-18.6748,0,2.90369
-273.856,-18.5947,0,2.90377
-274.223,-18.5058,0,2.90365
-274.566,-18.4227,0,2.90418
-274.908,-18.3398,0,2.9045
-275.263,-18.2541,0,2.90487
-275.606,-18.1714,0,2.90487
