x,y,z,theta,kappa,s,dkappa
22.2369,-49.5697,0,2.43291,2.74244e-07,0,-1.38667e-06
21.4761,-48.9175,0,2.43291,-8.51509e-07,1.00208,-9.46309e-07
20.7153,-48.2653,0,2.43291,-1.72854e-06,2.00415,-8.37753e-07
19.9545,-47.6131,0,2.43291,-2.57927e-06,3.00623,-8.78265e-07
19.1937,-46.9609,0,2.4329,-3.51564e-06,4.0083,-9.98848e-07
18.433,-46.3087,0,2.4329,-4.57936e-06,5.01038,-1.10855e-06
17.6722,-45.6566,0,2.43289,-5.64389e-06,6.01245,-9.20318e-07
16.9114,-45.0044,0,2.43289,-5.87934e-06,7.01453,9.60458e-07
16.1506,-44.3521,0,2.43288,-2.66512e-06,8.0166,6.15864e-06
15.3898,-43.6999,0,2.43288,8.40882e-06,9.01868,1.72104e-05
14.629,-43.0477,0,2.4329,3.48884e-05,10.0208,3.72985e-05
13.8682,-42.3956,0,2.43296,8.93201e-05,11.0228,8.26424e-05
13.1074,-41.7435,0,2.43311,0.000215238,12.0249,0.000171515
12.3463,-41.0915,0,2.43343,0.000433559,13.027,0.000262423
11.585,-40.44,0,2.43401,0.000734267,14.0291,0.000322959
10.8233,-39.7889,0,2.4349,0.00106091,15.0311,0.000327286
10.0608,-39.1387,0,2.43613,0.00139157,16.0332,0.000335671
9.2974,-38.4896,0,2.43769,0.00168176,17.0353,6.26763e-05
8.53296,-37.8416,0,2.43929,0.00139348,18.0374,-0.000629264
7.76765,-37.1948,0,2.44026,0.0004346,19.0394,-0.00127928
7.0021,-36.5482,0,2.43993,-0.00132396,20.0415,-0.00268255
6.23753,-35.9004,0,2.43684,-0.00525631,21.0436,-0.00517162
5.47653,-35.2485,0,2.42854,-0.0117366,22.0457,-0.00780736
4.72341,-34.5875,0,2.41237,-0.0211049,23.0477,-0.0111844
3.98469,-33.9104,0,2.38483,-0.0347064,24.0498,-0.0162679
3.27036,-33.2078,0,2.34073,-0.054587,25.0519,-0.0240136
2.5962,-32.4666,0,2.27219,-0.0839521,26.054,-0.0341425
1.98752,-31.6712,0,2.16896,-0.124378,27.056,-0.0480548
1.48409,-30.8058,0,2.01656,-0.183911,28.0581,-0.0726781
1.15,-29.8633,0,1.79347,-0.258578,29.0602,-0.0562537
1.06253,-28.8682,0,1.52261,-0.262944,30.0623,0.0543509
1.22873,-27.8821,0,1.3009,-0.170673,31.0643,0.103702
1.56226,-26.9378,0,1.17588,-0.0851511,32.0664,0.0669678
1.97777,-26.0261,0,1.11934,-0.031803,33.0685,0.0422775
2.42348,-25.1286,0,1.10612,0.00225585,34.0706,0.022908
2.86892,-24.231,0,1.11625,0.0146015,35.0726,0.00261636
3.30257,-23.3276,0,1.12916,0.00812602,36.0747,-0.0156284
3.73027,-22.4214,0,1.12639,-0.015734,37.0768,-0.0256101
4.17167,-21.5218,0,1.09947,-0.0362504,38.0789,-0.015133
4.64459,-20.6384,0,1.05752,-0.0454056,39.0809,-0.00275335
5.15623,-19.7769,0,1.01295,-0.0414765,40.083,0.00830702
5.70302,-18.9372,0,0.975676,-0.0328219,41.0851,0.00887528
6.27711,-18.116,0,0.947276,-0.0238402,42.0872,0.00899208
6.87068,-17.3086,0,0.927881,-0.0149417,43.0892,0.00834452
7.47641,-16.5103,0,0.916675,-0.0078475,44.0913,0.00581123
8.08857,-15.717,0,0.911303,-0.00329769,45.0934,0.00326914
8.70351,-14.9258,0,0.909218,-0.00124962,46.0955,0.00117118
9.3195,-14.1354,0,0.908486,-0.000278356,47.0975,0.000767267
9.93574,-13.3452,0,0.908525,0.000288068,48.0996,0.000363255
10.5518,-12.5549,0,0.908929,0.000456382,49.1017,2.66444e-05
11.1675,-11.7642,0,0.909389,0.000451246,50.1038,-3.6899e-05
11.7828,-10.9733,0,0.909812,0.000382418,51.1058,-0.000100478
12.3978,-10.1822,0,0.910134,0.000251771,52.1079,-0.000143681
13.0127,-9.39092,0,0.910322,0.000130669,53.11,-9.80202e-05
13.6274,-8.59955,0,0.910411,5.53271e-05,54.1121,-5.23503e-05
14.2421,-7.80814,0,0.910448,2.52955e-05,55.1141,-1.18514e-05
14.8567,-7.01672,0,0.91047,2.15799e-05,56.1162,4.43584e-06
15.4714,-6.22528,0,0.910496,3.41857e-05,57.1183,2.07236e-05
16.086,-5.43382,0,0.910544,6.37331e-05,58.1204,4.44934e-05
16.7005,-4.64231,0,0.91064,0.000139143,59.1225,0.000106011
17.315,-3.85072,0,0.910843,0.000276184,60.1245,0.000167493
17.9292,-3.05896,0,0.911214,0.000473673,61.1266,0.000214414
18.543,-2.2669,0,0.911791,0.000672353,62.1287,0.000182086
19.1563,-1.47443,0,0.912551,0.000838512,63.1308,0.000149495
19.769,-0.681454,0,0.913461,0.000968046,64.1328,6.34261e-05
20.3809,0.112105,0,0.914395,0.000829408,65.1349,-0.000339751
20.9921,0.906151,0,0.914988,0.000288097,66.137,-0.000740053
21.6032,1.70035,0,0.914839,-0.000664802,67.1391,-0.00132873
22.2149,2.49407,0,0.913189,-0.0029435,68.1411,-0.00321845
22.829,3.28589,0,0.908306,-0.0071199,69.1432,-0.00512375
23.449,4.0732,0,0.898272,-0.0132379,70.1453,-0.00712252
24.0794,4.8521,0,0.881045,-0.021544,71.1474,-0.00952131
24.7267,5.61705,0,0.854211,-0.032508,72.1494,-0.012486
25.3987,6.36029,0,0.814759,-0.0468714,73.1515,-0.0160842
26.105,7.07098,0,0.759417,-0.0639441,74.1536,-0.018266
26.8554,7.73472,0,0.685566,-0.0841522,75.1557,-0.0224707
27.6592,8.33243,0,0.588925,-0.109716,76.1577,-0.0272863
28.5234,8.83838,0,0.466386,-0.133154,77.1598,-0.0169755
29.4465,9.22621,0,0.328201,-0.138276,78.1619,0.00893108
30.4138,9.48522,0,0.19868,-0.117666,79.164,0.0237771
31.4052,9.62831,0,0.0912032,-0.0987531,80.166,0.0125563
32.4059,9.67157,0,-0.00398728,-0.0938593,81.1681,-0.00315931
33.4063,9.61944,0,-0.101403,-0.100971,82.1702,-0.0070037
34.3962,9.46678,0,-0.205444,-0.105845,83.1723,-0.00200475
35.3645,9.21076,0,-0.311152,-0.103623,84.1743,0.00700932
36.3014,8.85646,0,-0.410092,-0.0928337,85.1764,0.0135022
37.2016,8.41698,0,-0.495615,-0.0772032,86.1785,0.0174316
38.0654,7.90941,0,-0.563743,-0.0583294,87.1806,0.0200917
38.8982,7.35222,0,-0.612512,-0.0399322,88.1826,0.0154179
39.7078,6.76174,0,-0.645721,-0.0272467,89.1847,0.0100407
40.5007,6.14903,0,-0.668797,-0.0196026,90.1868,0.00528432
41.2812,5.52061,0,-0.686209,-0.0152624,91.1889,0.0041802
42.052,4.88032,0,-0.699405,-0.0110739,92.1909,0.004193
42.8157,4.23151,0,-0.708387,-0.00683985,93.193,0.00426288
43.5749,3.57748,0,-0.713185,-0.00292828,94.1951,0.00324547
44.3321,2.92113,0,-0.714733,-0.000405724,95.1972,0.00178278
45.089,2.26438,0,-0.714493,0.000635409,96.1992,0.000292043
45.8462,1.60803,0,-0.713868,0.0005636,97.2013,-0.000124775
46.6037,0.952107,0,-0.713363,0.000448061,98.2034,-0.000105745
47.3616,0.296525,0,-0.712964,0.000351802,99.2055,-8.63232e-05
48.1197,-0.358788,0,-0.712653,0.00026789,100.208,-8.72755e-05
48.878,-1.0139,0,-0.71243,0.000175619,101.21,-9.68677e-05
49.6364,-1.66888,0,-0.712304,7.37829e-05,102.212,-0.000106371
50.3948,-2.3238,0,-0.712276,1.13141e-06,103.214,-4.06706e-06
51.1533,-2.97871,0,-0.712252,7.33504e-05,104.216,0.000148209
51.9118,-3.63355,0,-0.712078,0.000298276,105.218,0.000300837
52.6705,-4.28816,0,-0.711585,0.000756328,106.22,0.000689032
53.4297,-4.94216,0,-0.710397,0.00169992,107.222,0.00119667
54.1901,-5.59483,0,-0.708005,0.00316216,108.224,0.00172709
54.9526,-6.24505,0,-0.703854,0.00527178,109.226,0.00258861
55.7185,-6.89116,0,-0.697091,0.00841229,110.228,0.00370643
56.49,-7.53072,0,-0.686588,0.0127732,111.23,0.00504505
57.2696,-8.1603,0,-0.671351,0.0170693,112.232,0.00212378
58.0596,-8.77679,0,-0.654097,0.0164048,113.235,-0.00363591
58.8592,-9.38064,0,-0.640572,0.00947836,114.237,-0.0102675
59.6644,-9.97725,0,-0.636922,-0.00255142,115.239,-0.0128485
60.4679,-10.576,0,-0.646069,-0.0157963,116.241,-0.0133866
61.2618,-11.1874,0,-0.668561,-0.0289866,117.243,-0.0127512
62.038,-11.8211,0,-0.701782,-0.0348788,118.245,0.00108044
62.7923,-12.4807,0,-0.734293,-0.0282725,119.247,0.0115217
63.5281,-13.161,0,-0.755382,-0.0123667,120.249,0.0203055
64.2555,-13.8502,0,-0.758844,0.00364645,121.251,0.0105605
64.9848,-14.5374,0,-0.751777,0.00848508,122.253,-0.00128128
65.7191,-15.2192,0,-0.746147,0.000522744,123.255,-0.0145083
66.4536,-15.9009,0,-0.751881,-0.00996595,124.257,-0.0043823
67.1819,-16.5892,0,-0.76228,-0.00916653,125.259,0.0053565
67.9043,-17.2836,0,-0.767524,-0.000100838,126.262,0.0126011
68.627,-17.9779,0,-0.761227,0.0118476,127.264,0.00909081
69.3574,-18.6639,0,-0.745782,0.017958,128.266,0.00294942
70.0997,-19.337,0,-0.727539,0.0171183,129.268,-0.00504799
70.853,-19.9979,0,-0.714117,0.00930968,130.27,-0.00770559
71.6125,-20.6516,0,-0.708228,0.0029054,131.272,-0.0049495
72.3741,-21.3028,0,-0.707265,-0.000432282,132.274,-0.00165728
73.1355,-21.9542,0,-0.708054,-0.00090846,133.276,-0.000155618
73.8964,-22.6063,0,-0.70905,-0.00108742,134.278,-0.000201689
74.6566,-23.2592,0,-0.710249,-0.00131301,135.28,-0.000248783
75.4159,-23.9131,0,-0.711694,-0.00156741,136.282,-0.000227752
76.1742,-24.5682,0,-0.713366,-0.00175656,137.284,-0.000149776
76.9314,-25.2246,0,-0.715188,-0.00186769,138.286,-7.21154e-05
77.6873,-25.8824,0,-0.717071,-0.00183445,139.288,0.000251831
78.442,-26.5416,0,-0.718694,-0.0013164,140.291,0.000780818
79.1959,-27.2018,0,-0.719534,-0.000272737,141.293,0.00130032
79.9497,-27.8621,0,-0.719004,0.00165634,142.295,0.00322613
80.7047,-28.521,0,-0.715188,0.00649606,143.297,0.00643545
81.4641,-29.1747,0,-0.704902,0.0145859,144.299,0.00974357
82.2332,-29.817,0,-0.684819,0.0260446,145.301,0.0130314
83.019,-30.4388,0,-0.651597,0.0408829,146.303,0.016768
83.8297,-31.0276,0,-0.601422,0.0601135,147.305,0.021888
84.6746,-31.566,0,-0.529212,0.084764,148.307,0.0263921
85.5621,-32.0305,0,-0.430407,0.113166,149.309,0.0307646
86.4963,-32.391,0,-0.300465,0.147384,150.311,0.0379616
87.4731,-32.6095,0,-0.133139,0.185368,151.313,0.0312655
88.4729,-32.6456,0,0.0640485,0.203423,152.315,0.00304124
89.4596,-32.4811,0,0.264359,0.191735,153.318,-0.0243888
90.3977,-32.1324,0,0.442326,0.162084,154.32,-0.0334488
91.2677,-31.637,0,0.586927,0.125624,155.322,-0.0388248
92.0692,-31.0362,0,0.692738,0.0850598,156.324,-0.0412941
92.8166,-30.369,0,0.758449,0.0471703,157.326,-0.0348421
93.5315,-29.6669,0,0.788885,0.0140948,158.328,-0.031731
94.2363,-28.9546,0,0.787206,-0.0174195,159.33,-0.0313712
94.9533,-28.2547,0,0.754237,-0.0482433,160.332,-0.0305406
95.7033,-27.5903,0,0.690413,-0.0793713,161.334,-0.031914
96.5037,-26.988,0,0.594424,-0.112627,162.336,-0.0336117
97.3663,-26.4793,0,0.466284,-0.141288,163.338,-0.0226145
98.2913,-26.0966,0,0.315868,-0.156262,164.34,-0.00681486
99.2644,-25.8614,0,0.158501,-0.155588,165.342,0.00556806
100.262,-25.7798,0,0.0058868,-0.14852,166.345,0.00847778
101.261,-25.8469,0,-0.138275,-0.138836,167.347,0.0106841
102.241,-26.0517,0,-0.271787,-0.127366,168.349,0.0123962
103.188,-26.3794,0,-0.392777,-0.113687,169.351,0.0149327
104.091,-26.8125,0,-0.498782,-0.0974731,170.353,0.0173852
104.948,-27.3315,0,-0.587556,-0.0801792,171.355,0.0145349
105.76,-27.9182,0,-0.661901,-0.0694598,172.357,0.00701377
106.529,-28.5604,0,-0.729134,-0.0658431,173.359,0.000322763
107.253,-29.2523,0,-0.795916,-0.0681514,174.361,-0.00391266
107.929,-29.9922,0,-0.866565,-0.0732599,175.363,-0.00634715
108.548,-30.7797,0,-0.94362,-0.0810028,176.365,-0.00917002
109.101,-31.6149,0,-1.0299,-0.0916993,177.367,-0.0121598
109.575,-32.4974,0,-1.12848,-0.105673,178.369,-0.0159247
109.952,-33.4251,0,-1.24313,-0.123958,179.372,-0.0206881
110.212,-34.3922,0,-1.37807,-0.144501,180.374,-0.0158603
110.33,-35.3864,0,-1.52827,-0.152552,181.376,0.000304022
110.297,-36.3869,0,-1.67821,-0.144093,182.378,0.0158904
110.121,-37.3727,0,-1.81347,-0.125755,183.38,0.0178532
109.822,-38.3286,0,-1.93082,-0.108729,184.382,0.0162304
109.421,-39.2465,0,-2.03181,-0.0929912,185.384,0.0153029
108.937,-40.1232,0,-2.11739,-0.0778698,186.386,0.0149352
108.385,-40.9595,0,-2.18793,-0.0629252,187.388,0.0149641
107.782,-41.7595,0,-2.24341,-0.0477286,188.39,0.0154439
107.141,-42.5297,0,-2.28379,-0.0333809,189.392,0.0127135
106.474,-43.278,0,-2.31136,-0.022139,190.394,0.0097913
105.791,-44.0111,0,-2.32908,-0.0136546,191.396,0.00717786
105.098,-44.7346,0,-2.33951,-0.00745788,192.398,0.00530071
104.399,-45.4529,0,-2.34461,-0.00301716,193.401,0.0035624
103.698,-46.1689,0,-2.34614,-0.000320562,194.403,0.00181757
102.997,-46.8847,0,-2.34572,0.00104577,195.405,0.00111064
102.296,-47.6011,0,-2.3442,0.00192772,196.407,0.00064881
101.597,-48.3189,0,-2.34202,0.00234488,197.409,0.000183401
100.899,-49.0382,0,-2.33966,0.00225134,198.411,-0.000392629
100.203,-49.7591,0,-2.33771,0.00155676,199.413,-0.000992389
99.5082,-50.4811,0,-2.33674,0.000265679,200.415,-0.00158249
98.8135,-51.2032,0,-2.33751,-0.00215439,201.417,-0.00356078
98.117,-51.9237,0,-2.34185,-0.00691332,202.419,-0.00594098
97.4154,-52.6391,0,-2.35217,-0.0140846,203.421,-0.00839293
96.7036,-53.3445,0,-2.37098,-0.0239926,204.423,-0.0115771
95.9749,-54.0322,0,-2.40146,-0.0375226,205.425,-0.0155705
95.2206,-54.6918,0,-2.44768,-0.055558,206.428,-0.0206353
94.4306,-55.308,0,-2.5144,-0.0779881,207.43,-0.0234091
93.5949,-55.8604,0,-2.60474,-0.102837,208.432,-0.0264636
92.7069,-56.3235,0,-2.72178,-0.131521,209.434,-0.0309603
91.7661,-56.6657,0,-2.86852,-0.159616,210.436,-0.0219083
90.7832,-56.8549,0,-3.03669,-0.173102,211.438,-0.00447604
89.7825,-56.873,0,3.07369,-0.169129,212.44,0.0112148
88.7929,-56.723,0,2.91112,-0.15398,213.442,0.0192282
87.8376,-56.4232,0,2.76781,-0.130788,214.444,0.0267345
86.9292,-56.0016,0,2.65112,-0.101429,215.446,0.0297684
86.0682,-55.4895,0,2.56345,-0.0744856,216.448,0.0242496
85.2479,-54.9142,0,2.50026,-0.0522662,217.45,0.0203793
84.4589,-54.2965,0,2.45766,-0.0332518,218.452,0.0170605
83.6912,-53.6526,0,2.432,-0.0188328,219.455,0.0118584
82.936,-52.9939,0,2.4183,-0.00928045,220.457,0.00727278
82.1873,-52.328,0,2.41192,-0.00410513,221.459,0.00361755
81.4413,-51.6588,0,2.40943,-0.00106105,222.461,0.00245827
80.6962,-50.9888,0,2.40941,0.000819096,223.463,0.00129185
79.9505,-50.3194,0,2.41068,0.00153985,224.465,0.000286635
79.2039,-49.651,0,2.41232,0.00168097,225.467,-5.38377e-06
78.4561,-48.9839,0,2.41395,0.00152853,226.469,-0.000299017
77.7073,-48.318,0,2.41528,0.00108898,227.471,-0.000512692
76.9579,-47.6528,0,2.41614,0.000647467,228.473,-0.000368327
76.2079,-46.9882,0,2.41663,0.000351065,229.475,-0.000223157
75.4577,-46.3238,0,2.41689,0.000198407,230.477,-0.000100075
74.7074,-45.6596,0,2.41704,0.000105823,231.479,-8.47042e-05
73.9571,-44.9954,0,2.41711,2.86558e-05,232.482,-6.93076e-05
73.2067,-44.3313,0,2.41711,-3.37733e-05,233.484,-6.24809e-05
72.4563,-43.6672,0,2.41703,-0.000115211,234.486,-0.000100054
71.706,-43.0029,0,2.41686,-0.000234284,235.488,-0.000137587
70.9559,-42.3385,0,2.41655,-0.00039221,236.49,-0.000192006
70.206,-41.6738,0,2.41604,-0.000659458,237.492,-0.000341268
69.4566,-41.0086,0,2.41518,-0.00107582,238.494,-0.00048948
68.7079,-40.3425,0,2.41383,-0.00163322,239.496,-0.000542036
67.9602,-39.6753,0,2.41201,-0.00191373,240.498,-1.82396e-05
67.2139,-39.0067,0,2.41017,-0.00167119,241.5,0.000501283
66.4686,-38.3368,0,2.40884,-0.000902278,242.502,0.00116999
65.7238,-37.6664,0,2.40882,0.00116231,243.504,0.00294512
64.9782,-36.9969,0,2.41176,0.00499561,244.506,0.00470801
64.2291,-36.3313,0,2.41943,0.0106296,245.508,0.00682054
63.4728,-35.6739,0,2.43437,0.0200837,246.511,0.0121344
62.7031,-35.0323,0,2.46157,0.0352263,247.513,0.0182858
61.9109,-34.4188,0,2.50726,0.0572305,248.515,0.0255095
61.0848,-33.852,0,2.57787,0.0842656,249.517,0.0288577
60.2138,-33.3574,0,2.67769,0.11596,250.519,0.0348505
59.2913,-32.9678,0,2.81267,0.154557,251.521,0.0397282
58.3205,-32.7246,0,2.9851,0.186774,252.523,0.0229889
57.3218,-32.6647,0,-3.10303,0.198873,253.525,0.00138723
56.3308,-32.802,0,-2.90581,0.192775,254.527,-0.0104209
55.3844,-33.1266,0,-2.71868,0.179961,255.529,-0.0148929
54.5111,-33.6156,0,-2.5463,0.163734,256.531,-0.0170152
53.7293,-34.2408,0,-2.39027,0.149212,257.533,-0.00853758
53.0501,-34.9764,0,-2.2426,0.14799,258.535,0.00625802
52.4882,-35.8049,0,-2.08854,0.162142,259.538,0.0221682
52.0688,-36.7136,0,-1.91368,0.186666,260.54,0.0225561
51.8252,-37.684,0,-1.71694,0.204048,261.542,0.0108567
51.7825,-38.6833,0,-1.50964,0.207058,262.544,-0.00477972
51.9452,-39.6704,0,-1.30752,0.193204,263.546,-0.0232941
52.2935,-40.6086,0,-1.12847,0.161609,264.548,-0.0384202
52.7879,-41.4792,0,-0.987201,0.119802,265.55,-0.0403742
53.3839,-42.2842,0,-0.885543,0.0848011,266.552,-0.0301593
54.0468,-43.0354,0,-0.814498,0.0580528,267.554,-0.0237987
54.7526,-43.7466,0,-0.767557,0.0364134,268.556,-0.0188527
55.4843,-44.4313,0,-0.739495,0.0205783,269.558,-0.0129449
56.2302,-45.1004,0,-0.724503,0.0101864,270.56,-0.00788837
56.9833,-45.7615,0,-0.717478,0.00448902,271.562,-0.00421953
57.7394,-46.4191,0,-0.71486,0.000972795,272.565,-0.00280048
58.4962,-47.076,0,-0.715053,-0.00112074,273.567,-0.00137387
59.2523,-47.7335,0,-0.716629,-0.00182084,274.569,-0.000258737
60.0073,-48.3925,0,-0.71853,-0.00192115,275.571,5.91148e-05
60.761,-49.0528,0,-0.720372,-0.00170166,276.573,0.000379103
61.5136,-49.7144,0,-0.721835,-0.00118029,277.575,0.000564826
62.2654,-50.3769,0,-0.722761,-0.000694056,278.577,0.000405335
63.0168,-51.04,0,-0.72328,-0.000368337,279.579,0.000244632
63.7679,-51.7033,0,-0.723553,-0.00019933,280.581,0.000117422
64.5188,-52.3668,0,-0.723699,-9.9431e-05,281.583,8.19588e-05
65.2697,-53.0304,0,-0.723764,-3.50722e-05,282.585,4.64941e-05
66.0206,-53.694,0,-0.723781,-5.33253e-06,283.587,1.80801e-05
66.7714,-54.3576,0,-0.723779,8.6497e-06,284.589,9.82651e-06
67.5223,-55.0211,0,-0.723767,1.43602e-05,285.592,1.56988e-06
68.2732,-55.6847,0,-0.723753,1.20675e-05,286.594,-4.49114e-06
69.0241,-56.3483,0,-0.723743,7.87522e-06,287.596,-3.8758e-06
69.775,-57.0119,0,-0.723737,4.30024e-06,288.598,-3.25925e-06
70.5258,-57.6754,0,-0.723734,1.34491e-06,289.6,-2.62847e-06
71.2767,-58.339,0,-0.723734,-9.50345e-07,290.602,-1.95257e-06
72.0276,-59.0026,0,-0.723736,-2.5683e-06,291.604,-1.27655e-06
72.7785,-59.6661,0,-0.723739,-3.51152e-06,292.606,-6.26073e-07
73.5294,-60.3297,0,-0.723743,-3.85741e-06,293.608,-6.4233e-08
74.2803,-60.9933,0,-0.723747,-3.64023e-06,294.61,4.97674e-07
75.0312,-61.6568,0,-0.72375,-2.77659e-06,295.612,1.83032e-06
75.7821,-62.3204,0,-0.723751,1.12514e-06,296.614,5.95637e-06
76.5329,-62.984,0,-0.723746,9.16032e-06,297.616,1.0081e-05
77.2838,-63.6475,0,-0.723731,2.20456e-05,298.618,2.116e-05
78.0347,-64.3111,0,-0.723692,6.22873e-05,299.621,5.91633e-05
78.7857,-64.9746,0,-0.723594,0.00014063,300.623,9.72002e-05
79.5367,-65.638,0,-0.723398,0.00025703,301.625,0.000134653
80.288,-66.3012,0,-0.723067,0.000409512,302.627,0.000169651
81.0394,-66.9641,0,-0.722565,0.000596955,303.629,0.000204403
81.7913,-67.6265,0,-0.721859,0.000815743,304.631,0.000203145
82.5438,-68.2883,0,-0.720966,0.00093961,305.633,4.41281e-05
83.2968,-68.9494,0,-0.720029,0.000904376,306.635,-0.000114307
84.0504,-69.6099,0,-0.719207,0.000695152,307.637,-0.000455111
84.8045,-70.2699,0,-0.718944,-0.000373621,308.639,-0.00167581
85.5582,-70.9302,0,-0.720362,-0.00265846,309.641,-0.00288171
86.3101,-71.5927,0,-0.724674,-0.00615802,310.643,-0.0042667
87.0577,-72.2598,0,-0.733403,-0.0116827,311.645,-0.00677077
87.7974,-72.9359,0,-0.748943,-0.0197748,312.648,-0.0094182
88.5234,-73.6266,0,-0.773968,-0.0306633,313.65,-0.0123137
89.2275,-74.3395,0,-0.811337,-0.0444118,314.652,-0.0152699
89.8991,-75.0831,0,-0.864124,-0.0616078,315.654,-0.0192426
90.5231,-75.8669,0,-0.936331,-0.0833176,316.656,-0.0236231
91.0794,-76.6999,0,-1.03173,-0.107164,317.658,-0.0241449
91.543,-77.5876,0,-1.15145,-0.13205,318.66,-0.0256789
91.8851,-78.5285,0,-1.29698,-0.15834,319.662,-0.0236569
92.0754,-79.5112,0,-1.46441,-0.172365,320.664,-0.00301653
92.0959,-80.5118,0,-1.63471,-0.163721,321.666,0.0194988
91.9543,-81.5029,0,-1.78646,-0.138037,322.668,0.0260638
91.6769,-82.4651,0,-1.91261,-0.114611,323.67,0.0208295
91.2906,-83.3892,0,-2.01773,-0.0958538,324.672,0.0168612
90.8171,-84.272,0,-2.10571,-0.0799198,325.675,0.0157374
90.2746,-85.1142,0,-2.17778,-0.0637684,326.677,0.0166547
89.6794,-85.9202,0,-2.23304,-0.0462175,327.679,0.0185455
89.0476,-86.698,0,-2.26997,-0.028007,328.681,0.0159037
88.3938,-87.4574,0,-2.29093,-0.0147057,329.683,0.0106735
87.7286,-88.2068,0,-2.3012,-0.00667678,330.685,0.0053012
87.0581,-88.9515,0,-2.30588,-0.00297203,331.687,0.00308247
86.3853,-89.6941,0,-2.30747,-0.000380086,332.689,0.00203829
85.7121,-90.4365,0,-2.30703,0.00107054,333.691,0.00087689
85.0397,-91.1794,0,-2.30568,0.00147252,334.693,-1.16962e-05
84.3683,-91.9234,0,-2.30429,0.00122783,335.695,-0.000399229
83.6979,-92.6681,0,-2.30328,0.000781297,336.697,-0.000457952
83.028,-93.4134,0,-2.30272,0.000349936,337.699,-0.000393314
82.3584,-94.1589,0,-2.30255,1.30076e-05,338.702,-0.00023846
81.6888,-94.9044,0,-2.30262,-0.000131671,339.704,-7.21712e-05
81.0192,-95.6499,0,-2.30278,-0.000161944,340.706,2.05633e-06
80.3494,-96.3952,0,-2.30293,-0.00013977,341.708,3.8805e-05
79.6795,-97.1405,0,-2.30305,-8.72451e-05,342.71,6.60889e-05
