x,y,z,theta,kappa,s,dkappa
107.699,-7.20126,0,0.100956,-0.0416219,0,0.0509146
108.696,-7.11479,0,0.0770788,-0.0112086,1.00039,0.0186116
109.694,-7.04067,0,0.0735904,0.00310274,2.00078,0.0116146
110.691,-6.96373,0,0.0821823,0.0139074,3.00117,0.0105729
111.687,-6.87287,0,0.101581,0.0251686,4.00156,0.0123305
112.681,-6.75673,0,0.1335,0.039299,5.00195,0.0162352
113.669,-6.60125,0,0.181749,0.0579456,6.00234,0.0208206
114.646,-6.38825,0,0.25176,0.0838522,7.00273,0.0318285
115.602,-6.0931,0,0.354075,0.123394,8.00313,0.0478996
116.513,-5.68149,0,0.504156,0.178813,9.00352,0.0601931
117.335,-5.11499,0,0.710953,0.229651,10.0039,0.0296118
118.01,-4.37963,0,0.945602,0.229428,11.0043,-0.0302196
118.504,-3.51177,0,1.15249,0.17865,12.0047,-0.0633614
118.837,-2.56937,0,1.29925,0.11558,13.0051,-0.0589621
119.057,-1.594,0,1.38895,0.0671933,14.0055,-0.0383388
119.211,-0.605542,0,1.43988,0.0373332,15.0059,-0.0220626
119.326,0.388167,0,1.46847,0.0220227,16.0063,-0.00913185
119.419,1.38425,0,1.48629,0.0139442,17.0066,-0.00706845
119.497,2.38154,0,1.49702,0.00780718,18.007,-0.0052254
119.568,3.37943,0,1.50251,0.00345995,19.0074,-0.00347216
119.635,4.37757,0,1.50423,-2.44904e-06,20.0078,-0.00344969
119.702,5.37571,0,1.50251,-0.00343292,21.0082,-0.00340087
119.773,6.37361,0,1.49739,-0.00678541,22.0086,-0.00328786
119.85,7.37099,0,1.48832,-0.0120424,23.009,-0.00732952
119.94,8.36733,0,1.4719,-0.0214836,24.0094,-0.0115966
120.051,9.36145,0,1.44383,-0.0354454,25.0098,-0.0164732
120.199,10.3509,0,1.39945,-0.0539863,26.0102,-0.0207964
120.399,11.3307,0,1.33403,-0.0779481,27.0105,-0.0276645
120.676,12.2916,0,1.24059,-0.110637,28.0109,-0.0383889
121.058,13.2155,0,1.11096,-0.147428,29.0113,-0.0327112
121.571,14.0734,0,0.949436,-0.172751,30.0117,-0.0162827
122.222,14.8313,0,0.772105,-0.17812,31.0121,0.00498546
122.996,15.463,0,0.598814,-0.16607,32.0125,0.0184262
123.863,15.9589,0,0.443436,-0.143317,33.0129,0.0259098
124.793,16.3262,0,0.313467,-0.116458,34.0133,0.0257403
125.76,16.5825,0,0.208895,-0.0934425,35.0137,0.0207154
126.746,16.7473,0,0.125254,-0.0742118,36.0141,0.0180832
127.742,16.8383,0,0.0598498,-0.056795,37.0145,0.0162294
128.742,16.8723,0,0.010551,-0.0423213,38.0148,0.0128813
129.742,16.8637,0,-0.0257841,-0.0307335,39.0152,0.0103988
130.742,16.8242,0,-0.0516701,-0.021345,40.0156,0.00843946
131.74,16.7632,0,-0.0691022,-0.0138094,41.016,0.006618
132.738,16.6882,0,-0.0799141,-0.00811588,42.0164,0.00475919
133.735,16.605,0,-0.0859645,-0.00427793,43.0168,0.00306859
134.731,16.5175,0,-0.0888625,-0.00167043,44.0172,0.00214084
135.728,16.4282,0,-0.0896195,-7.57881e-07,45.0176,0.00119454
136.724,16.3388,0,-0.0891813,0.000728085,46.018,0.000373473
137.721,16.2501,0,-0.0883031,0.000990347,47.0184,0.000150601
138.717,16.1624,0,-0.0872743,0.00102915,48.0188,-7.30694e-05
139.714,16.0757,0,-0.0863184,0.000848278,49.0191,-0.000250435
140.71,15.9898,0,-0.0855888,0.000616727,50.0195,-0.000212453
141.707,15.9046,0,-0.0850718,0.00042326,51.0199,-0.000174309
142.704,15.8198,0,-0.0847292,0.00026788,52.0203,-0.000137519
143.701,15.7352,0,-0.0845251,0.000145167,53.0207,-0.000107808
144.698,15.6508,0,-0.0844289,5.21814e-05,54.0211,-7.80899e-05
145.694,15.5665,0,-0.0844108,-1.15461e-05,55.0215,-5.426e-05
146.691,15.4821,0,-0.0844507,-6.93514e-05,56.0219,-6.13067e-05
147.688,15.3977,0,-0.0845519,-0.00013421,57.0223,-6.83627e-05
148.685,15.3131,0,-0.0847216,-0.000207529,58.0227,-9.3787e-05
149.682,15.2283,0,-0.0849975,-0.000365365,59.023,-0.00022179
150.678,15.1432,0,-0.0854954,-0.000651374,60.0234,-0.000350072
151.675,15.0574,0,-0.0863433,-0.00105984,61.0238,-0.00039386
152.672,14.9705,0,-0.0875237,-0.00122289,62.0242,6.81714e-05
153.668,14.8825,0,-0.0886357,-0.000922842,63.0246,0.000531954
154.665,14.7936,0,-0.0892153,-0.000159723,64.025,0.000975953
155.661,14.7046,0,-0.0888341,0.000974036,65.0254,0.00129016
156.658,14.6165,0,-0.0871622,0.00242007,66.0258,0.00159971
157.654,14.5309,0,-0.0838907,0.00415855,67.0262,0.00169908
158.651,14.4494,0,-0.0790851,0.00524459,68.0266,0.000473737
159.649,14.373,0,-0.0738041,0.00511139,69.027,-0.000736648
160.647,14.3016,0,-0.069258,0.00378504,70.0273,-0.00182029
161.645,14.234,0,-0.0664335,0.00181121,71.0277,-0.00212358
162.643,14.1681,0,-0.0657331,-0.00045911,72.0281,-0.00241289
163.641,14.1018,0,-0.0674466,-0.0030273,73.0285,-0.00305518
164.639,14.0321,0,-0.072759,-0.00834636,74.0289,-0.00757613
165.637,13.9538,0,-0.0856651,-0.0182337,75.0293,-0.01225
166.632,13.8569,0,-0.110882,-0.0330608,76.0297,-0.0174453
167.624,13.7267,0,-0.153204,-0.0521347,77.0301,-0.0209633
168.608,13.5447,0,-0.216672,-0.0756675,78.0305,-0.0264632
169.574,13.2884,0,-0.306821,-0.105854,79.0309,-0.0338453
170.508,12.9313,0,-0.42882,-0.137103,80.0313,-0.0281475
171.384,12.4506,0,-0.57873,-0.161157,81.0316,-0.0195401
172.172,11.8363,0,-0.748141,-0.175962,82.032,-0.00987724
172.841,11.0941,0,-0.92685,-0.178851,83.0324,0.00478135
173.368,10.2455,0,-1.10078,-0.166427,84.0328,0.0193786
173.749,9.32131,0,-1.25597,-0.143018,85.0332,0.0238122
173.993,8.35201,0,-1.38774,-0.120969,86.0336,0.0205184
174.119,7.36004,0,-1.49884,-0.101444,87.034,0.0187657
174.143,6.3603,0,-1.59107,-0.0830603,88.0344,0.0179856
174.084,5.36187,0,-1.66526,-0.0653342,89.0348,0.0175558
173.96,4.36932,0,-1.72183,-0.0477146,90.0352,0.0177842
173.789,3.38374,0,-1.76066,-0.0302527,91.0356,0.0158659
173.588,2.40382,0,-1.78366,-0.0163887,92.0359,0.0119418
173.37,1.42737,0,-1.79469,-0.00624112,93.0363,0.00837592
173.147,0.452366,0,-1.79723,0.000982916,94.0367,0.00732032
172.924,-0.522885,0,-1.79233,0.00905189,95.0371,0.00880806
172.71,-1.50013,0,-1.77862,0.0186201,96.0375,0.0103385
172.514,-2.48121,0,-1.75452,0.0299385,97.0379,0.012706
172.349,-3.46771,0,-1.71759,0.0445594,98.0383,0.0167477
172.227,-4.46061,0,-1.66375,0.0640523,99.0387,0.0226111
172.17,-5.45914,0,-1.58715,0.0900316,100.039,0.0278364
172.204,-6.45852,0,-1.48282,0.118902,101.039,0.030017
172.356,-7.44655,0,-1.34845,0.150108,102.04,0.032213
172.654,-8.40033,0,-1.18243,0.180257,103.04,0.0226804
173.116,-9.28578,0,-0.995014,0.189844,104.041,-0.00447409
173.736,-10.0695,0,-0.811747,0.172588,105.041,-0.0280253
174.48,-10.7363,0,-0.654104,0.143221,106.041,-0.0262719
175.313,-11.2896,0,-0.522721,0.12064,107.042,-0.0191071
176.206,-11.7382,0,-0.410609,0.104406,108.042,-0.0136543
177.142,-12.091,0,-0.312656,0.0914849,109.043,-0.0129933
178.106,-12.3569,0,-0.227885,0.0776705,110.043,-0.0149064
179.088,-12.5474,0,-0.15814,0.061227,111.043,-0.0181201
180.08,-12.6777,0,-0.105977,0.0433157,112.044,-0.0170234
181.076,-12.7646,0,-0.0708409,0.0272452,113.044,-0.0151342
182.075,-12.8243,0,-0.0508788,0.0129252,114.045,-0.013566
183.074,-12.8709,0,-0.0442143,0.00108433,115.045,-0.00973757
184.073,-12.916,0,-0.0473029,-0.00655758,116.045,-0.00552518
185.072,-12.9673,0,-0.0559021,-0.00989709,117.046,-0.00110393
186.071,-13.0282,0,-0.0658253,-0.00957682,118.046,0.00133364
187.069,-13.0985,0,-0.0744212,-0.00729389,119.046,0.00321908
188.066,-13.1759,0,-0.0798008,-0.00315708,120.047,0.00504414
189.063,-13.2563,0,-0.0804823,0.00148402,121.047,0.00357636
190.061,-13.3355,0,-0.077589,0.0039196,122.048,0.00129302
191.058,-13.411,0,-0.0734024,0.00406854,123.048,-0.000997259
192.056,-13.4826,0,-0.0700003,0.00273894,124.048,-0.00121561
193.054,-13.5513,0,-0.0678103,0.00169759,125.049,-0.000866018
194.052,-13.6184,0,-0.0664869,0.00100669,126.049,-0.000515065
195.05,-13.6844,0,-0.0656974,0.000595816,127.05,-0.00034756
196.049,-13.7499,0,-0.0652562,0.000305467,128.05,-0.000232864
197.047,-13.815,0,-0.065048,0.000129967,129.05,-0.00011798
198.045,-13.88,0,-0.0649641,4.50307e-05,130.051,-6.66103e-05
199.044,-13.9449,0,-0.064947,-5.54409e-06,131.051,-3.44989e-05
200.042,-14.0098,0,-0.0649644,-2.39931e-05,132.052,-2.38451e-06
201.04,-14.0748,0,-0.0649866,-1.96425e-05,133.052,5.16444e-06
202.038,-14.1398,0,-0.0650037,-1.45996e-05,134.052,4.91749e-06
203.037,-14.2048,0,-0.0650159,-9.80373e-06,135.053,4.67047e-06
204.035,-14.2698,0,-0.0650235,-5.47988e-06,136.053,3.82463e-06
205.033,-14.3348,0,-0.0650272,-2.17623e-06,137.054,2.78011e-06
206.031,-14.3998,0,-0.0650282,8.24997e-08,138.054,1.73558e-06
207.03,-14.4648,0,-0.0650273,1.61985e-06,139.054,1.56225e-06
208.028,-14.5298,0,-0.0650249,3.24712e-06,140.055,1.69102e-06
209.026,-14.5948,0,-0.0650208,5.0032e-06,141.055,1.81978e-06
210.025,-14.6598,0,-0.0650151,5.8201e-06,142.055,-9.596e-07
211.023,-14.7248,0,-0.0650104,2.94331e-06,143.056,-4.79172e-06
212.021,-14.7898,0,-0.0650105,-3.76715e-06,144.056,-8.62404e-06
213.019,-14.8548,0,-0.0650207,-2.01743e-05,145.057,-2.86037e-05
214.018,-14.9198,0,-0.0650595,-6.18338e-05,146.057,-5.46833e-05
215.016,-14.9849,0,-0.0651531,-0.000129584,147.057,-8.07631e-05
216.014,-15.0501,0,-0.0653309,-0.000237677,148.058,-0.000146551
217.012,-15.1155,0,-0.0656556,-0.000424989,149.058,-0.000227911
218.011,-15.1814,0,-0.0662083,-0.000693627,150.059,-0.000309118
219.009,-15.248,0,-0.0670599,-0.000999034,151.059,-0.000265062
220.007,-15.3156,0,-0.068176,-0.0012163,152.059,-0.000169187
221.005,-15.3844,0,-0.0694614,-0.00133734,153.06,-7.27069e-05
222.003,-15.4545,0,-0.0707913,-0.00124094,154.06,0.000368562
223.001,-15.5258,0,-0.0717507,-0.000579901,155.061,0.000951457
223.999,-15.5976,0,-0.0717589,0.000658694,156.061,0.00152226
224.996,-15.6687,0,-0.0701713,0.0027835,157.061,0.00302022
225.995,-15.7369,0,-0.0655575,0.00675669,158.062,0.00491669
226.993,-15.7981,0,-0.0560254,0.0126116,159.062,0.0067859
227.992,-15.8466,0,-0.0395852,0.0208767,160.063,0.0103424
228.992,-15.8738,0,-0.0127443,0.0335885,161.063,0.0151752
229.993,-15.867,0,0.0293574,0.0515328,162.063,0.0208851
230.991,-15.8082,0,0.0921892,0.0744295,163.064,0.0233544
231.982,-15.6752,0,0.178452,0.098219,164.064,0.0244939
232.955,-15.4456,0,0.289377,0.124026,165.064,0.0273847
233.892,-15.0971,0,0.427283,0.150793,166.065,0.0225451
234.766,-14.6129,0,0.587108,0.166204,167.065,0.00747915
235.549,-13.9917,0,0.754326,0.165403,168.066,-0.00856487
236.22,-13.2508,0,0.913954,0.152787,169.066,-0.0151257
236.77,-12.4165,0,1.05842,0.135213,170.066,-0.0199716
237.203,-11.5155,0,1.18296,0.113076,171.067,-0.0241219
237.532,-10.5712,0,1.28412,0.0896004,172.067,-0.0221711
237.775,-9.60107,0,1.36298,0.0683221,173.068,-0.0205977
237.952,-8.61645,0,1.42112,0.0479749,174.068,-0.0202571
238.08,-7.62443,0,1.45962,0.0298943,175.068,-0.0153532
238.179,-6.62891,0,1.48272,0.0171392,176.069,-0.0102207
238.26,-5.63181,0,1.49556,0.00932651,177.069,-0.00544215
238.331,-4.63397,0,1.50237,0.00420131,178.07,-0.00547496
238.398,-3.63584,0,1.5037,-0.00168689,179.07,-0.00629773
238.467,-2.63783,0,1.49872,-0.00839761,180.07,-0.00711545
238.545,-1.64046,0,1.48634,-0.017001,181.071,-0.0106121
238.64,-0.64459,0,1.46331,-0.0297521,182.071,-0.0149313
238.764,0.34793,0,1.42531,-0.0470101,183.071,-0.0196459
238.936,1.33335,0,1.36789,-0.068101,184.072,-0.0219725
239.174,2.30463,0,1.28832,-0.0915101,185.072,-0.0252194
239.501,3.24974,0,1.1833,-0.119398,186.073,-0.0309447
239.938,4.14877,0,1.04824,-0.149423,187.073,-0.0251166
240.503,4.97303,0,0.888462,-0.167628,188.073,-0.0108934
241.197,5.69216,0,0.717693,-0.171568,189.074,0.00224021
242.003,6.2829,0,0.548385,-0.165943,190.074,0.00874738
242.895,6.73297,0,0.388161,-0.152871,191.075,0.0177221
243.845,7.04269,0,0.245671,-0.130481,192.075,0.0267801
244.828,7.22665,0,0.129131,-0.102403,193.075,0.028189
245.825,7.30918,0,0.0408391,-0.0740338,194.076,0.0286628
246.825,7.31782,0,-0.0186876,-0.0447373,195.076,0.0300768
247.824,7.28182,0,-0.0482423,-0.0143485,196.077,0.0303395
248.824,7.23148,0,-0.0473072,0.0164245,197.077,0.0316079
249.823,7.1978,0,-0.0144605,0.0500048,198.077,0.0361968
250.823,7.21461,0,0.0544027,0.0877291,199.078,0.0373037
251.818,7.31885,0,0.160566,0.124207,200.078,0.0354082
252.791,7.54522,0,0.301936,0.157666,201.079,0.0308494
253.717,7.92099,0,0.473398,0.182626,202.079,0.0162296
254.56,8.4571,0,0.660376,0.187207,203.079,-0.00736219
255.29,9.13946,0,0.840477,0.169801,204.08,-0.0255656
255.894,9.93519,0,0.997294,0.143855,205.08,-0.0255125
256.379,10.8097,0,1.1285,0.118458,206.08,-0.0254259
256.756,11.7356,0,1.23417,0.0926825,207.081,-0.0259401
257.047,12.6927,0,1.31495,0.0697725,208.081,-0.0201055
257.269,13.6679,0,1.37547,0.0519453,209.082,-0.0157759
257.44,14.6535,0,1.4201,0.0377914,210.082,-0.012695
257.573,15.6449,0,1.45196,0.0263145,211.082,-0.0103101
257.68,16.6395,0,1.47349,0.0170572,212.083,-0.00824071
257.77,17.6358,0,1.48674,0.00976116,213.083,-0.00636779
257.851,18.633,0,1.49362,0.00429272,214.084,-0.00456762
257.926,19.6305,0,1.49593,0.000623775,215.084,-0.00276373
258.001,20.6281,0,1.49548,-0.00122595,216.084,-0.000927911
258.077,21.6256,0,1.49383,-0.00203927,217.085,-0.000706611
258.155,22.6229,0,1.49147,-0.00263794,218.085,-0.000489598
258.236,23.6201,0,1.48862,-0.00301791,219.086,-0.00026978
258.32,24.617,0,1.48555,-0.00303061,220.086,0.000249956
258.406,25.6136,0,1.48273,-0.00251892,221.086,0.000771935
258.495,26.61,0,1.48069,-0.00148934,222.087,0.00128428
258.586,27.6063,0,1.48005,0.000437779,223.087,0.00258898
258.676,28.6026,0,1.482,0.00367593,224.088,0.00387611
258.762,29.5993,0,1.48782,0.00817341,225.088,0.00510426
258.84,30.5967,0,1.49904,0.0147969,226.088,0.00826666
258.903,31.5951,0,1.51854,0.0247723,227.089,0.0117311
258.94,32.5947,0,1.54983,0.0384419,228.089,0.0157172
258.939,33.595,0,1.59668,0.0556949,229.089,0.0187975
258.882,34.5936,0,1.66249,0.076667,230.09,0.0235021
258.748,35.5846,0,1.75204,0.103543,231.09,0.030654
258.512,36.5562,0,1.87111,0.133989,232.091,0.0284547
258.149,37.4874,0,2.01837,0.159249,233.091,0.0214539
257.644,38.3493,0,2.18688,0.176047,234.091,0.0119848
256.996,39.1099,0,2.36596,0.178638,235.092,-0.0077856
256.225,39.7447,0,2.53733,0.160741,236.092,-0.0269265
255.362,40.2491,0,2.68251,0.12793,237.093,-0.0349091
254.441,40.6389,0,2.79467,0.0977934,238.093,-0.025908
253.486,40.9364,0,2.88061,0.074974,239.093,-0.0202193
252.511,41.1612,0,2.94611,0.0564993,240.094,-0.0169194
251.526,41.3303,0,2.99468,0.0410891,241.094,-0.0139789
250.533,41.4586,0,3.02921,0.0283484,242.095,-0.0115773
249.538,41.5585,0,3.05212,0.0177944,243.095,-0.00944524
248.541,41.6405,0,3.06566,0.00971994,244.095,-0.00671886
247.543,41.7126,0,3.07246,0.00432915,245.096,-0.00406049
246.545,41.7801,0,3.0752,0.00158475,246.096,-0.00167823
245.547,41.8459,0,3.07602,0.000125546,247.096,-0.00123645
244.549,41.9116,0,3.07561,-0.000885219,248.097,-0.000782896
243.551,41.9781,0,3.0744,-0.00143984,249.097,-0.000339458
242.552,42.046,0,3.07285,-0.00161798,250.098,-1.62312e-05
241.554,42.1155,0,3.07128,-0.00147158,251.098,0.000309168
240.557,42.1865,0,3.07001,-0.00100198,252.098,0.000581151
239.559,42.2584,0,3.06927,-0.000515283,253.099,0.000391634
238.561,42.3309,0,3.06892,-0.000218655,254.099,0.00020135
237.563,42.4037,0,3.06877,-0.000111502,255.1,2.99408e-05
236.566,42.4765,0,3.06867,-7.97415e-05,256.1,3.35654e-05
235.568,42.5494,0,3.06861,-4.43295e-05,257.1,3.72355e-05
234.57,42.6224,0,3.06859,-5.33024e-06,258.101,3.88825e-05
233.572,42.6953,0,3.0686,2.40596e-05,259.101,1.98725e-05
232.575,42.7683,0,3.06863,3.4433e-05,260.102,8.69636e-07
231.577,42.8412,0,3.06866,2.5883e-05,261.102,-1.62642e-05
230.579,42.9141,0,3.06868,1.14333e-05,262.102,-1.26254e-05
229.581,42.987,0,3.06868,6.20288e-07,263.103,-8.99287e-06
228.584,43.0598,0,3.06868,-6.54935e-06,264.103,-5.06876e-06
227.586,43.1327,0,3.06867,-7.79524e-06,265.104,2.57853e-06
226.588,43.2056,0,3.06867,-1.38935e-06,266.104,1.02283e-05
225.591,43.2785,0,3.06867,1.26232e-05,267.104,1.64885e-05
224.593,43.3514,0,3.06869,2.22575e-05,268.105,2.77432e-06
223.595,43.4242,0,3.06871,1.81791e-05,269.105,-1.09253e-05
222.597,43.4971,0,3.06872,4.45371e-07,270.105,-2.30401e-05
221.6,43.5699,0,3.06871,-1.5433e-05,271.106,-8.70464e-06
220.602,43.6428,0,3.0687,-1.6968e-05,272.106,5.63797e-06
219.604,43.7156,0,3.06868,-4.1795e-06,273.107,1.87085e-05
218.606,43.7885,0,3.06869,8.23794e-06,274.107,6.11608e-06
217.609,43.8614,0,3.0687,8.0585e-06,275.107,-6.4738e-06
216.611,43.9342,0,3.0687,-4.69581e-06,276.108,-1.81495e-05
215.613,44.0071,0,3.06869,-1.74778e-05,277.108,-7.40427e-06
214.615,44.08,0,3.06867,-1.95077e-05,278.109,3.3479e-06
213.618,44.1529,0,3.06865,-1.07825e-05,279.109,1.36869e-05
212.62,44.2258,0,3.06865,1.40237e-06,280.109,1.06723e-05
211.622,44.2987,0,3.06865,1.05691e-05,281.11,7.65361e-06
210.625,44.3716,0,3.06867,1.67142e-05,282.11,4.52626e-06
209.627,44.4445,0,3.06868,1.73425e-05,283.111,-3.26891e-06
208.629,44.5173,0,3.0687,1.0176e-05,284.111,-1.10577e-05
207.631,44.5902,0,3.0687,-4.77983e-06,285.111,-1.85991e-05
206.634,44.663,0,3.06869,-1.85173e-05,286.112,-8.86523e-06
205.636,44.7359,0,3.06867,-2.25154e-05,287.112,8.73604e-07
204.638,44.8088,0,3.06865,-1.67665e-05,288.113,1.0562e-05
203.64,44.8817,0,3.06864,-6.54839e-06,289.113,9.86532e-06
202.643,44.9546,0,3.06864,2.97085e-06,290.113,9.1655e-06
201.645,45.0276,0,3.06864,1.17898e-05,291.114,8.46589e-06
200.647,45.1005,0,3.06866,3.5334e-05,292.114,3.86843e-05
199.65,45.1733,0,3.06872,8.91895e-05,293.114,6.89845e-05
198.652,45.2461,0,3.06885,0.000173355,294.115,9.92783e-05
197.654,45.3187,0,3.0691,0.000348728,295.115,0.000252654
196.656,45.3909,0,3.0696,0.000678806,296.116,0.000407193
195.658,45.4625,0,3.07051,0.00116328,297.116,0.000561271
194.66,45.5329,0,3.07191,0.0015962,298.116,0.000295972
193.662,45.6017,0,3.07361,0.00175508,299.117,2.16001e-05
192.664,45.6688,0,3.07533,0.00163955,300.117,-0.000252317
191.666,45.7343,0,3.07667,0.000855234,301.118,-0.00133698
190.668,45.799,0,3.07668,-0.00102886,302.118,-0.00242609
189.67,45.8649,0,3.07426,-0.00399181,303.118,-0.00349429
188.672,45.9349,0,3.06803,-0.00899636,304.119,-0.00661584
187.674,46.0141,0,3.05517,-0.017264,305.119,-0.00994594
186.679,46.1109,0,3.03233,-0.0290009,306.12,-0.0135907
185.686,46.2367,0,2.99625,-0.0433217,307.12,-0.0149281
184.7,46.4055,0,2.94516,-0.0591372,308.12,-0.0168459
183.726,46.6325,0,2.87713,-0.0773562,309.121,-0.0197438
182.773,46.9343,0,2.78956,-0.0980023,310.121,-0.0215932
181.854,47.328,0,2.68025,-0.121055,311.121,-0.0247502
180.989,47.8301,0,2.54606,-0.147956,312.122,-0.0287446
180.208,48.4537,0,2.38549,-0.170804,313.122,-0.0153218
179.544,49.1999,0,2.21021,-0.176241,314.123,0.00485088
179.019,50.0502,0,2.03947,-0.162339,315.123,0.02122
178.638,50.974,0,1.88944,-0.136011,316.123,0.0306892
178.385,51.9412,0,1.76974,-0.102471,317.124,0.035712
178.232,52.9295,0,1.6855,-0.0659215,318.124,0.03555
178.144,53.926,0,1.63675,-0.0320012,319.125,0.0327604
178.089,54.9248,0,1.62105,0.000670812,320.125,0.0330802
178.033,55.9236,0,1.63867,0.0348633,321.125,0.0347012
177.942,56.9198,0,1.69109,0.0702808,322.126,0.0367362
177.781,57.9068,0,1.78062,0.109698,323.126,0.042726
177.512,58.8696,0,1.913,0.1554,324.127,0.0436953
177.099,59.7793,0,2.08718,0.189077,325.127,0.0212858
176.524,60.5961,0,2.282,0.195439,326.127,-0.00817715
175.803,61.2872,0,2.46987,0.177753,327.128,-0.023215
174.971,61.8407,0,2.63469,0.150406,328.128,-0.0312591
174.065,62.2639,0,2.7684,0.115914,329.129,-0.0373294
173.116,62.5799,0,2.86571,0.0799749,330.129,-0.0306509
172.145,62.8182,0,2.93218,0.0545612,331.129,-0.0207032
171.162,63.0024,0,2.9777,0.0376775,332.13,-0.0133765
170.172,63.149,0,3.00956,0.0265639,333.13,-0.00975741
169.179,63.269,0,3.03162,0.0178864,334.13,-0.00761236
168.184,63.3711,0,3.04604,0.0112927,335.131,-0.00558731
167.187,63.4618,0,3.05484,0.0065424,336.131,-0.00408759
166.191,63.5458,0,3.05954,0.00304989,337.132,-0.00289731
165.194,63.6267,0,3.06134,0.00074678,338.132,-0.001704
164.196,63.7068,0,3.06141,-0.000480769,339.132,-0.000923898
163.199,63.7873,0,3.06055,-0.00115816,340.133,-0.000428892
162.202,63.8689,0,3.05926,-0.00133689,341.133,7.21657e-05
161.205,63.9518,0,3.05802,-0.0011021,342.134,0.000268355
160.208,64.0358,0,3.05705,-0.000847073,343.134,0.000241324
159.212,64.1207,0,3.05632,-0.000619526,344.134,0.000213502
158.215,64.2062,0,3.0558,-0.00042145,345.135,0.000180326
157.218,64.2921,0,3.05547,-0.000259497,346.135,0.000143466
156.221,64.3782,0,3.05527,-0.000134402,347.136,0.00010662
155.225,64.4645,0,3.05518,-4.27922e-05,348.136,8.18348e-05
