x, y, z, theta
14.1952,-30.5325,0,-1.63205
14.1713,-30.9219,0,-1.6287
14.1502,-31.2863,0,-1.62484
14.1284,-31.6885,0,-1.62219
14.1052,-32.141,0,-1.6209
14.0894,-32.4552,0,-1.62044
14.0732,-32.7821,0,-1.62004
14.0552,-33.1466,0,-1.61979
14.0373,-33.512,0,-1.62068
14.0172,-33.9143,0,-1.62097
13.9964,-34.3291,0,-1.62131
13.9741,-34.769,0,-1.62174
13.951,-35.2215,0,-1.6221
13.9265,-35.6992,0,-1.62252
13.9011,-36.1894,0,-1.62306
13.8749,-36.6921,0,-1.62371
13.8489,-37.1823,0,-1.62456
13.8205,-37.7101,0,-1.62523
13.791,-38.2505,0,-1.62669
13.7617,-38.7745,0,-1.62717
13.7305,-39.3274,0,-1.62828
13.6987,-39.8803,0,-1.6289
13.6665,-40.4331,0,-1.62937
13.6334,-40.9985,0,-1.62922
13.5996,-41.5765,0,-1.6287
13.5675,-42.1294,0,-1.62764
13.5504,-42.4309,0,-1.62723
13.5191,-42.9838,0,-1.62681
13.5022,-43.2854,0,-1.62606
13.4723,-43.8258,0,-1.62544
13.4558,-44.1274,0,-1.62496
13.4259,-44.6804,0,-1.62417
13.4097,-44.982,0,-1.62338
13.3821,-45.5081,0,-1.62263
13.3527,-46.0737,0,-1.62173
13.3239,-46.6393,0,-1.62097
13.2961,-47.1924,0,-1.62005
13.2688,-47.7455,0,-1.61854
13.2424,-48.2987,0,-1.61582
13.218,-48.8393,0,-1.61359
13.1949,-49.38,0,-1.61131
13.1735,-49.9082,0,-1.60883
13.1529,-50.449,0,-1.60658
13.1336,-50.9877,0,-1.60419
13.1156,-51.5286,0,-1.60165
13.0989,-52.0695,0,-1.599
13.084,-52.5979,0,-1.59754
13.0691,-53.1515,0,-1.59798
13.0544,-53.6925,0,-1.60022
13.0381,-54.246,0,-1.60216
13.0216,-54.7744,0,-1.60482
13.0027,-55.3278,0,-1.60779
12.9827,-55.8687,0,-1.61152
12.9607,-56.4094,0,-1.61574
12.936,-56.959,0,-1.61866
12.9101,-57.4996,0,-1.62223
12.8816,-58.0526,0,-1.62578
12.8512,-58.6056,0,-1.62875
12.8191,-59.1584,0,-1.63142
12.7863,-59.6986,0,-1.63385
12.7514,-60.2513,0,-1.63563
12.7155,-60.8039,0,-1.63673
12.6807,-61.3314,0,-1.63788
12.6436,-61.8839,0,-1.6385
12.6078,-62.4113,0,-1.63912
12.5717,-62.9387,0,-1.63989
12.5369,-63.4421,0,-1.63873
12.501,-63.9695,0,-1.63795
12.4655,-64.4969,0,-1.6376
12.4302,-65.0243,0,-1.63448
12.3966,-65.5518,0,-1.62755
12.3673,-66.067,0,-1.61679
12.3436,-66.5825,0,-1.60334
12.3272,-67.0857,0,-1.57958
12.3227,-67.6017,0,-1.54224
12.3367,-68.0923,0,-1.49651
12.3741,-68.5943,0,-1.44517
12.4367,-69.0901,0,-1.38143
12.5291,-69.5721,0,-1.31746
12.6521,-70.0472,0,-1.24936
12.8071,-70.5128,0,-1.15996
13.0081,-70.9742,0,-1.07679
13.2348,-71.3951,0,-1.00084
13.486,-71.7871,0,-0.92944
13.7495,-72.14,0,-0.871294
14.0088,-72.4482,0,-0.819817
14.2578,-72.715,0,-0.77719
14.5001,-72.9533,0,-0.756272
14.8091,-73.2447,0,-0.712478
15.0853,-73.4833,0,-0.695676
15.3171,-73.6769,0,-0.685075
15.5705,-73.884,0,-0.676878
15.8452,-74.1047,0,-0.672008
16.1407,-74.3398,0,-0.673188
16.4173,-74.5603,0,-0.669575
16.7134,-74.7947,0,-0.671838
17.0384,-75.0532,0,-0.675063
17.2841,-75.2498,0,-0.677785
17.539,-75.455,0,-0.68174
17.8126,-75.6771,0,-0.687164
18.0753,-75.8927,0,-0.69437
18.3461,-76.1182,0,-0.70273
18.615,-76.3459,0,-0.712853
18.864,-76.5612,0,-0.71969
19.1195,-76.7852,0,-0.728209
19.3638,-77.0029,0,-0.736116
19.6156,-77.2311,0,-0.743445
19.8565,-77.4526,0,-0.751752
20.0863,-77.6674,0,-0.759149
20.3237,-77.8927,0,-0.764513
20.5508,-78.1105,0,-0.766708
20.7774,-78.3288,0,-0.763996
21.0228,-78.5639,0,-0.756705
21.279,-78.8058,0,-0.749146
21.5216,-79.0314,0,-0.732937
21.8023,-79.284,0,-0.715501
22.0777,-79.5235,0,-0.693755
22.368,-79.7649,0,-0.667183
22.6547,-79.9907,0,-0.637506
22.948,-80.208,0,-0.604402
23.2587,-80.4225,0,-0.564797
23.5882,-80.6313,0,-0.523966
23.9369,-80.8328,0,-0.478634
24.3055,-81.0241,0,-0.431633
24.6942,-81.2031,0,-0.376114
25.1064,-81.3659,0,-0.339026
25.5337,-81.5166,0,-0.303346
25.9901,-81.6594,0,-0.278088
26.4621,-81.7942,0,-0.258276
26.961,-81.926,0,-0.245678
27.4615,-82.0515,0,-0.23776
27.963,-82.173,0,-0.231697
28.4775,-82.2944,0,-0.228243
28.9801,-82.4111,0,-0.22592
29.4708,-82.5239,0,-0.223725
29.9862,-82.6412,0,-0.222323
30.4794,-82.7527,0,-0.22118
30.9829,-82.8659,0,-0.219964
31.4742,-82.9758,0,-0.218544
31.978,-83.0876,0,-0.21745
32.4818,-83.199,0,-0.216243
32.9735,-83.307,0,-0.214999
33.49,-83.4198,0,-0.213014
33.982,-83.5262,0,-0.209605
34.4744,-83.6309,0,-0.205987
34.9796,-83.7365,0,-0.20191
35.4604,-83.8349,0,-0.197042
35.9541,-83.9335,0,-0.191581
36.4609,-84.0318,0,-0.184858
36.9682,-84.1266,0,-0.177359
37.4885,-84.2199,0,-0.168328
37.9848,-84.3042,0,-0.15837
38.5068,-84.3876,0,-0.148848
39.0171,-84.4641,0,-0.139205
39.5406,-84.5375,0,-0.128174
40.0773,-84.6066,0,-0.118818
40.6022,-84.6693,0,-0.112002
41.1275,-84.7284,0,-0.10588
41.6406,-84.7829,0,-0.0949926
42.1156,-84.8282,0,-0.0930439
42.6294,-84.8761,0,-0.0870679
43.131,-84.9199,0,-0.0810527
43.6453,-84.9617,0,-0.0748145
44.1348,-84.9984,0,-0.0704231
44.6369,-85.0338,0,-0.0680694
45.1267,-85.0672,0,-0.0673373
45.629,-85.101,0,-0.0682819
46.1061,-85.1337,0,-0.069828
46.5958,-85.1679,0,-0.071437
47.0854,-85.203,0,-0.0752515
47.5605,-85.2388,0,-0.0750982
48.0499,-85.2756,0,-0.0768498
48.5142,-85.3114,0,-0.077801
48.9785,-85.3475,0,-0.0783928
49.4427,-85.384,0,-0.0783824
49.8944,-85.4195,0,-0.0752041
50.3462,-85.4535,0,-0.0713405
50.7731,-85.484,0,-0.0683744
51.2,-85.5133,0,-0.0651213
51.627,-85.5411,0,-0.0611554
52.0541,-85.5673,0,-0.0562744
52.4457,-85.5893,0,-0.0504106
52.8479,-85.6096,0,-0.0450948
53.2251,-85.6266,0,-0.0394707
53.615,-85.642,0,-0.0343988
53.9923,-85.655,0,-0.0288591
54.3697,-85.6659,0,-0.0220324
54.7346,-85.674,0,-0.0146538
55.0996,-85.6793,0,-0.00455627
55.4897,-85.6811,0,0.0051322
55.8673,-85.6792,0,0.0173768
56.2585,-85.6724,0,0.0248933
56.6737,-85.662,0,0.0364876
57.1013,-85.6464,0,0.0470709
57.5287,-85.6263,0,0.0549567
57.9811,-85.6014,0,0.0622226
58.4458,-85.5724,0,0.0671942
58.923,-85.5403,0,0.0727146
59.4,-85.5056,0,0.076558
59.902,-85.4671,0,0.0786474
60.4164,-85.4265,0,0.0788574
60.9434,-85.3849,0,0.0783526
61.4578,-85.3445,0,0.0767201
61.9985,-85.3029,0,0.0728063
62.5508,-85.2626,0,0.0687967
63.1158,-85.2237,0,0.0629886
63.6685,-85.1889,0,0.055481
64.2466,-85.1568,0,0.0473261
64.8375,-85.1288,0,0.0399421
65.4285,-85.1051,0,0.0332164
65.7807,-85.0934,0,0.0269435
66.3217,-85.0789,0,0.0203589
66.6237,-85.0727,0,0.0157124
66.9383,-85.0678,0,0.0115434
67.2404,-85.0643,0,0.00535477
67.8445,-85.0611,0,-0.00596594
68.4442,-85.0646,0,-0.00868884
68.7463,-85.0673,0,-0.0134573
69.0609,-85.0715,0,-0.0181637
69.3881,-85.0774,0,-0.0247928
69.992,-85.0924,0,-0.0308284
70.3191,-85.1025,0,-0.0347868
70.621,-85.113,0,-0.0375922
70.948,-85.1253,0,-0.0405524
71.2624,-85.1381,0,-0.0428822
71.5767,-85.1515,0,-0.0444357
71.8911,-85.1655,0,-0.0456901
72.218,-85.1805,0,-0.0467158
72.5197,-85.1946,0,-0.047419
72.8466,-85.2101,0,-0.0476973
73.1734,-85.2257,0,-0.0478103
73.4877,-85.2407,0,-0.0481978
73.802,-85.2559,0,-0.0486592
74.1163,-85.2712,0,-0.0487318
74.4305,-85.2865,0,-0.0508057
74.7503,-85.3028,0,-0.0494717
75.0771,-85.319,0,-0.0497744
75.4039,-85.3352,0,-0.0500539
75.7308,-85.3516,0,-0.0502867
76.0576,-85.3681,0,-0.0509199
76.3718,-85.3841,0,-0.0515011
76.6986,-85.4009,0,-0.0517118
77.0254,-85.4178,0,-0.0521335
77.3648,-85.4355,0,-0.052599
77.6916,-85.4527,0,-0.0527166
78.0183,-85.47,0,-0.0524964
78.4205,-85.4911,0,-0.0515735
79.0238,-85.5223,0,-0.0508785
79.3758,-85.5402,0,-0.0504975
79.7026,-85.5567,0,-0.0496377
80.042,-85.5736,0,-0.0489571
80.3689,-85.5896,0,-0.0486724
80.7083,-85.6061,0,-0.0481176
81.0351,-85.6218,0,-0.0472969
81.3746,-85.6379,0,-0.0464468
81.714,-85.6537,0,-0.0444964
82.0224,-85.6674,0,-0.0452454
82.3493,-85.6822,0,-0.0445467
82.6763,-85.6968,0,-0.043777
83.0032,-85.7111,0,-0.0431632
83.3427,-85.7258,0,-0.0427368
83.657,-85.7392,0,-0.0424938
83.984,-85.7531,0,-0.0426378
84.2983,-85.7665,0,-0.0431947
84.6253,-85.7807,0,-0.043952
85.0151,-85.7978,0,-0.043768
85.5809,-85.8226,0,-0.0442451
85.8952,-85.8365,0,-0.0442641
86.2221,-85.851,0,-0.0448217
86.8256,-85.8781,0,-0.0454794
87.14,-85.8924,0,-0.0456985
87.4543,-85.9067,0,-0.046063
87.7686,-85.9212,0,-0.0466409
88.0829,-85.9359,0,-0.0471001
88.3846,-85.9501,0,-0.0468876
88.6989,-85.9649,0,-0.0467422
89.0007,-85.979,0,-0.0475218
89.3024,-85.9933,0,-0.0473997
89.6167,-86.0082,0,-0.0468947
89.9184,-86.0224,0,-0.046717
90.2453,-86.0377,0,-0.0470099
90.5596,-86.0525,0,-0.0474168
90.8865,-86.068,0,-0.047277
91.2133,-86.0834,0,-0.0469834
91.5276,-86.0982,0,-0.0468323
91.8545,-86.1135,0,-0.0465739
92.1688,-86.1282,0,-0.0469972
92.5208,-86.1447,0,-0.0470814
92.8351,-86.1596,0,-0.0466227
93.162,-86.1748,0,-0.0469299
93.4889,-86.1902,0,-0.0468495
93.8283,-86.2061,0,-0.0463102
94.1678,-86.2218,0,-0.0458753
94.4947,-86.2368,0,-0.0450766
94.8341,-86.2521,0,-0.0441755
95.1736,-86.2671,0,-0.0433101
95.5005,-86.2813,0,-0.0427848
95.84,-86.2958,0,-0.042581
96.1796,-86.3103,0,-0.0423928
96.515,-86.3245,0,-0.0423521
96.8419,-86.3384,0,-0.0426205
97.194,-86.3534,0,-0.0428566
97.5461,-86.3685,0,-0.0429596
97.9485,-86.3858,0,-0.0434477
98.5646,-86.4126,0,-0.0439532
98.9041,-86.4275,0,-0.0444747
99.231,-86.4421,0,-0.0451765
99.583,-86.458,0,-0.0458542
99.9099,-86.473,0,-0.0462166
100.262,-86.4893,0,-0.0465984
100.589,-86.5045,0,-0.0468252
100.941,-86.521,0,-0.0467127
101.343,-86.5398,0,-0.0472359
101.934,-86.5677,0,-0.0466914
102.273,-86.5836,0,-0.0467139
102.613,-86.5995,0,-0.0464927
102.952,-86.6152,0,-0.0461104
103.279,-86.6303,0,-0.0460642
103.631,-86.6466,0,-0.0455281
103.952,-86.6612,0,-0.0440623
104.291,-86.6761,0,-0.0417848
104.706,-86.6935,0,-0.039323
105.31,-86.7172,0,-0.0362088
105.624,-86.7286,0,-0.034514
105.964,-86.7403,0,-0.032561
106.303,-86.7514,0,-0.0298241
106.631,-86.7612,0,-0.0282347
106.983,-86.7711,0,-0.0261637
107.31,-86.7797,0,-0.0243358
107.662,-86.7882,0,-0.0222724
108.002,-86.7958,0,-0.0205885
108.329,-86.8026,0,-0.0191185
108.681,-86.8093,0,-0.018251
109.034,-86.8157,0,-0.0174072
109.386,-86.8219,0,-0.015964
109.726,-86.8273,0,-0.0151772
110.066,-86.8324,0,-0.0147443
110.418,-86.8376,0,-0.0142973
110.783,-86.8428,0,-0.0117013
111.134,-86.847,0,-0.0132081
111.55,-86.8524,0,-0.012124
112.179,-86.8601,0,-0.0117686
112.544,-86.8644,0,-0.0110791
112.909,-86.8684,0,-0.0107026
113.274,-86.8723,0,-0.011171
113.626,-86.8763,0,-0.0113563
114.004,-86.8805,0,-0.0117122
114.356,-86.8847,0,-0.0125837
114.721,-86.8893,0,-0.0129527
115.099,-86.8942,0,-0.0133362
115.464,-86.899,0,-0.0143067
115.841,-86.9044,0,-0.0148837
116.206,-86.9099,0,-0.0156603
116.584,-86.9158,0,-0.0163885
116.949,-86.9218,0,-0.0171359
117.326,-86.9282,0,-0.0177629
117.704,-86.9349,0,-0.0184678
118.081,-86.9419,0,-0.0191577
118.459,-86.9491,0,-0.0197192
118.912,-86.9581,0,-0.0201317
119.214,-86.9641,0,-0.021092
119.584,-86.972,0,-0.0212576
119.974,-86.9803,0,-0.0219231
120.364,-86.9888,0,-0.0225874
120.754,-86.9976,0,-0.0230568
121.119,-87.006,0,-0.0237392
121.522,-87.0156,0,-0.0241893
121.899,-87.0247,0,-0.024411
122.277,-87.0339,0,-0.0247993
122.679,-87.0439,0,-0.0249761
123.057,-87.0534,0,-0.0252407
123.434,-87.0629,0,-0.025524
123.812,-87.0725,0,-0.0258068
124.189,-87.0823,0,-0.0258588
124.554,-87.0917,0,-0.0258192
124.919,-87.1011,0,-0.0260083
125.296,-87.1109,0,-0.0260489
125.649,-87.1201,0,-0.0259892
126.026,-87.1299,0,-0.0259649
126.391,-87.1394,0,-0.0258995
126.756,-87.1489,0,-0.0261755
127.121,-87.1584,0,-0.026443
127.461,-87.1674,0,-0.0259853
127.826,-87.1769,0,-0.0258669
128.203,-87.1867,0,-0.0259168
128.555,-87.1958,0,-0.0260503
128.933,-87.2056,0,-0.0257442
129.31,-87.2153,0,-0.0257069
129.688,-87.2251,0,-0.0257544
130.053,-87.2345,0,-0.0256453
130.43,-87.2441,0,-0.0257846
130.807,-87.2539,0,-0.0257014
131.16,-87.2629,0,-0.0257126
131.525,-87.2723,0,-0.0257866
131.902,-87.282,0,-0.0261088
132.28,-87.2919,0,-0.0260682
132.632,-87.3011,0,-0.0257058
133.009,-87.3108,0,-0.0258599
133.374,-87.3202,0,-0.0260874
133.802,-87.3314,0,-0.0258075
134.444,-87.348,0,-0.0264794
134.796,-87.3573,0,-0.0267994
135.224,-87.3688,0,-0.0272924
135.862,-87.3862,0,-0.0288888
136.441,-87.4029,0,-0.029733
136.743,-87.4119,0,-0.0307462
137.095,-87.4227,0,-0.0315428
137.586,-87.4382,0,-0.0331594
138.114,-87.4557,0,-0.0347215
138.579,-87.4719,0,-0.0362566
139.007,-87.4874,0,-0.0379822
139.435,-87.5037,0,-0.0393775
139.837,-87.5195,0,-0.0410142
140.227,-87.5355,0,-0.0424031
140.592,-87.551,0,-0.0418635
140.994,-87.5678,0,-0.0450436
141.358,-87.5843,0,-0.0502528
141.723,-87.6026,0,-0.0580681
142.075,-87.623,0,-0.0691032
142.439,-87.6482,0,-0.0802253
142.79,-87.6765,0,-0.0867984
143.141,-87.707,0,-0.0878866
143.517,-87.7402,0,-0.0830607
143.894,-87.7715,0,-0.0749183
144.27,-87.7998,0,-0.0626693
144.672,-87.825,0,-0.0467008
145.065,-87.8433,0,-0.0346418
145.442,-87.8564,0,-0.025522
145.82,-87.8661,0,-0.0204173
146.172,-87.8733,0,-0.0178827
146.499,-87.8791,0,-0.0165859
146.814,-87.8843,0,-0.0155101
147.116,-87.889,0,-0.0143713
147.544,-87.8952,0,-0.0153568
147.959,-87.9015,0,-0.0213396
148.385,-87.9106,0,-0.0339173
148.813,-87.9251,0,-0.0601433
149.252,-87.9516,0,-0.0955168
149.553,-87.9804,0,-0.131774
149.853,-88.0201,0,-0.17294
150.15,-88.0721,0,-0.219392
150.445,-88.1378,0,-0.278569
150.759,-88.2278,0,-0.3433
151.067,-88.3379,0,-0.41534
151.367,-88.4699,0,-0.485564
151.667,-88.6285,0,-0.563769
151.951,-88.8078,0,-0.636744
152.234,-89.0173,0,-0.713362
152.51,-89.2561,0,-0.792466
152.766,-89.5159,0,-0.873238
153.017,-89.8148,0,-0.953394
153.243,-90.1328,0,-1.02822
153.438,-90.456,0,-1.10211
153.631,-90.8377,0,-1.17251
153.792,-91.2204,0,-1.23406
153.929,-91.6123,0,-1.3108
154.041,-92.0331,0,-1.35775
154.131,-92.4513,0,-1.40949
154.202,-92.886,0,-1.45741
154.251,-93.3112,0,-1.50056
154.281,-93.7506,0,-1.53504
154.297,-94.1908,0,-1.56331
154.301,-94.6313,0,-1.58347
154.295,-95.0718,0,-1.59808
154.283,-95.4995,0,-1.60811
154.267,-95.9271,0,-1.61283
154.249,-96.3672,0,-1.62595
154.226,-96.7796,0,-1.61527
154.208,-97.1945,0,-1.61508
154.188,-97.6346,0,-1.61497
154.17,-98.0496,0,-1.6151
154.151,-98.4771,0,-1.61688
154.13,-98.9171,0,-1.61881
154.11,-99.3445,0,-1.6207
154.088,-99.7845,0,-1.62306
154.066,-100.199,0,-1.62573
154.042,-100.639,0,-1.62844
154.017,-101.079,0,-1.63076
153.99,-101.519,0,-1.6298
153.963,-101.978,0,-1.63611
153.934,-102.43,0,-1.63854
153.902,-102.895,0,-1.64114
153.87,-103.347,0,-1.6443
153.836,-103.811,0,-1.6459
153.8,-104.288,0,-1.64639
153.761,-104.803,0,-1.64677
153.72,-105.343,0,-1.64627
153.68,-105.87,0,-1.64578
153.639,-106.422,0,-1.64603
153.598,-106.958,0,-1.64443
153.558,-107.51,0,-1.64266
153.518,-108.062,0,-1.64101
153.479,-108.615,0,-1.63858
153.441,-109.167,0,-1.63542
153.42,-109.494,0,-1.63322
153.391,-109.959,0,-1.63004
153.36,-110.486,0,-1.62648
153.331,-111.014,0,-1.62328
153.304,-111.529,0,-1.61968
153.275,-112.108,0,-1.61655
153.254,-112.573,0,-1.61251
153.233,-113.075,0,-1.61067
153.212,-113.603,0,-1.60798
153.192,-114.132,0,-1.6057
153.172,-114.723,0,-1.6037
153.153,-115.276,0,-1.60172
153.138,-115.779,0,-1.60001
153.122,-116.32,0,-1.59827
153.107,-116.874,0,-1.59637
153.092,-117.44,0,-1.59483
153.079,-118.006,0,-1.59278
153.066,-118.585,0,-1.59101
153.054,-119.159,0,-1.58856
153.044,-119.738,0,-1.58727
153.039,-120.04,0,-1.58588
153.034,-120.38,0,-1.58436
153.027,-120.908,0,-1.58199
153.02,-121.5,0,-1.58039
153.015,-122.079,0,-1.57984
153.012,-122.381,0,-1.57911
153.007,-122.922,0,-1.57827
153.005,-123.224,0,-1.57773
153.001,-123.765,0,-1.57697
152.998,-124.306,0,-1.57601
152.995,-124.847,0,-1.57433
152.993,-125.361,0,-1.57343
152.992,-125.877,0,-1.57103
152.992,-126.406,0,-1.56928
152.993,-126.909,0,-1.56902
152.994,-127.4,0,-1.56828
152.995,-127.891,0,-1.56503
152.997,-128.357,0,-1.55644
153.004,-128.822,0,-1.53963
153.018,-129.25,0,-1.52041
153.04,-129.69,0,-1.49541
153.071,-130.104,0,-1.46602
153.114,-130.511,0,-1.42703
153.168,-130.884,0,-1.38145
153.239,-131.255,0,-1.33482
153.324,-131.61,0,-1.28071
153.429,-131.96,0,-1.22052
153.554,-132.302,0,-1.15754
153.7,-132.637,0,-1.0977
153.861,-132.95,0,-1.02977
154.055,-133.274,0,-0.965272
154.27,-133.584,0,-0.896787
154.553,-133.938,0,-0.852477
154.792,-134.211,0,-0.776235
155.079,-134.493,0,-0.721293
155.381,-134.759,0,-0.669416
155.707,-135.017,0,-0.609829
156.099,-135.291,0,-0.554358
156.441,-135.503,0,-0.494062
156.862,-135.73,0,-0.437299
157.273,-135.921,0,-0.377811
157.694,-136.089,0,-0.323243
158.135,-136.236,0,-0.272839
158.535,-136.348,0,-0.189959
158.998,-136.437,0,-0.173563
159.469,-136.52,0,-0.129277
159.969,-136.585,0,-0.0959001
160.445,-136.631,0,-0.0731453
160.947,-136.667,0,-0.0608987
161.449,-136.698,0,-0.0511175
161.965,-136.724,0,-0.0451177
162.467,-136.747,0,-0.0421422
162.97,-136.768,0,-0.0407492
163.473,-136.789,0,-0.0391585
163.989,-136.809,0,-0.0393373
164.501,-136.829,0,-0.0364921
165.042,-136.849,0,-0.0353313
165.596,-136.868,0,-0.0341206
166.149,-136.887,0,-0.0324903
166.702,-136.905,0,-0.0316623
167.269,-136.923,0,-0.0305253
167.847,-136.941,0,-0.0294436
168.426,-136.958,0,-0.028493
168.728,-136.967,0,-0.0282419
169.03,-136.975,0,-0.0278619
169.596,-136.991,0,-0.0271324
169.898,-136.999,0,-0.02642
170.2,-137.007,0,-0.0265589
170.765,-137.022,0,-0.0246034
171.067,-137.03,0,-0.0239469
171.369,-137.037,0,-0.0230885
171.96,-137.05,0,-0.0222298
172.262,-137.057,0,-0.0211125
172.841,-137.069,0,-0.0200326
173.42,-137.081,0,-0.0195527
174.011,-137.093,0,-0.0198213
174.59,-137.104,0,-0.0205855
175.169,-137.116,0,-0.0221749
175.735,-137.128,0,-0.0247618
176.302,-137.143,0,-0.0285075
176.868,-137.159,0,-0.0330513
177.418,-137.177,0,-0.0387802
177.984,-137.199,0,-0.0447273
178.512,-137.222,0,-0.0507693
179.052,-137.25,0,-0.0561284
179.568,-137.279,0,-0.0608657
180.083,-137.31,0,-0.0663734
180.597,-137.344,0,-0.07126
181.1,-137.38,0,-0.0760792
181.602,-137.419,0,-0.080518
182.091,-137.458,0,-0.0854638
182.55,-137.497,0,-0.0877319
183.014,-137.538,0,-0.0903093
183.465,-137.579,0,-0.0916101
183.903,-137.619,0,-0.0928646
184.342,-137.66,0,-0.0939388
184.743,-137.698,0,-0.0953522
185.131,-137.735,0,-0.0955149
185.507,-137.771,0,-0.0959288
185.858,-137.805,0,-0.096015
186.209,-137.839,0,-0.0960139
186.547,-137.871,0,-0.0958455
186.91,-137.906,0,-0.0948892
187.267,-137.94,0,-0.0950933
187.618,-137.974,0,-0.0960498
187.969,-138.007,0,-0.0968696
188.345,-138.044,0,-0.0944468
188.696,-138.077,0,-0.0899635
189.059,-138.11,0,-0.0801507
189.435,-138.14,0,-0.0675665
189.8,-138.165,0,-0.0438305
190.164,-138.181,0,-0.00956414
190.504,-138.184,0,0.0257158
190.869,-138.175,0,0.0781571
191.218,-138.147,0,0.136753
191.567,-138.099,0,0.200786
191.9,-138.031,0,0.27118
192.228,-137.94,0,0.338459
192.56,-137.823,0,0.410114
192.906,-137.673,0,0.482437
193.252,-137.492,0,0.558554
193.583,-137.285,0,0.631783
193.907,-137.047,0,0.709288
194.232,-136.769,0,0.815558
194.524,-136.459,0,0.873286
194.799,-136.131,0,0.958069
195.045,-135.781,0,1.05103
195.257,-135.41,0,1.13626
195.448,-134.999,0,1.22123
195.599,-134.585,0,1.29436
195.726,-134.137,0,1.36304
195.822,-133.682,0,1.41897
195.894,-133.209,0,1.46221
195.947,-132.721,0,1.49443
195.987,-132.206,0,1.53534
196.004,-131.725,0,1.52283
196.029,-131.197,0,1.52309
196.054,-130.669,0,1.52246
196.08,-130.141,0,1.52225
196.107,-129.588,0,1.52152
196.133,-129.047,0,1.52069
196.162,-128.481,0,1.5205
196.19,-127.916,0,1.52033
196.22,-127.337,0,1.52066
196.235,-127.036,0,1.52075
196.264,-126.458,0,1.52137
196.279,-126.156,0,1.52136
196.297,-125.791,0,1.51485
196.325,-125.279,0,1.52026
196.341,-124.977,0,1.51913
196.371,-124.387,0,1.51804
196.387,-124.085,0,1.51773
196.403,-123.783,0,1.51729
196.434,-123.205,0,1.51664
196.465,-122.627,0,1.5164
196.497,-122.049,0,1.51638
196.527,-121.496,0,1.51635
196.558,-120.931,0,1.51641
196.588,-120.378,0,1.51635
196.618,-119.825,0,1.5173
196.646,-119.298,0,1.51755
196.672,-118.808,0,1.5181
196.696,-118.355,0,1.51864
196.72,-117.903,0,1.51942
196.741,-117.488,0,1.52038
196.761,-117.086,0,1.52095
196.781,-116.696,0,1.52253
196.799,-116.319,0,1.52499
196.816,-115.942,0,1.52743
196.832,-115.577,0,1.52956
196.847,-115.225,0,1.53232
196.861,-114.86,0,1.53391
196.875,-114.482,0,1.53733
196.886,-114.143,0,1.53963
196.897,-113.803,0,1.54208
196.906,-113.488,0,1.54412
196.914,-113.161,0,1.54655
196.922,-112.834,0,1.54887
196.929,-112.532,0,1.55157
196.937,-112.104,0,1.55481
196.944,-111.702,0,1.55826
196.949,-111.305,0,1.56122
196.952,-110.927,0,1.56344
