x, y, z, theta
17.0503,-52.0514,0,2.31918
16.816,-51.7999,0,2.31123
16.5512,-51.5133,0,2.30116
16.3249,-51.2598,0,2.30213
16.0504,-50.9481,0,2.32256
15.8315,-50.7048,0,2.35219
15.5731,-50.4296,0,2.38379
15.2882,-50.145,0,2.42649
15.005,-49.8883,0,2.4686
14.6486,-49.5886,0,2.51028
14.2887,-49.3134,0,2.54689
13.8969,-49.0392,0,2.5738
13.4958,-48.7787,0,2.58958
13.0784,-48.5204,0,2.58999
12.6478,-48.2595,0,2.58005
12.2294,-48.003,0,2.55346
11.8052,-47.7319,0,2.51073
11.3802,-47.4393,0,2.46437
10.9599,-47.1188,0,2.4102
10.5599,-46.7785,0,2.35809
10.1667,-46.4068,0,2.30679
9.80276,-46.0235,0,2.26121
9.43448,-45.5933,0,2.22784
9.08468,-45.1479,0,2.20411
8.90424,-44.9057,0,2.19831
8.56498,-44.4365,0,2.19895
8.38944,-44.1907,0,2.20427
8.20659,-43.9346,0,2.2131
7.85818,-43.4566,0,2.24143
7.66875,-43.2053,0,2.2628
7.46708,-42.9477,0,2.28454
7.26822,-42.7038,0,2.30804
7.06377,-42.4647,0,2.33219
6.84516,-42.2212,0,2.35588
6.64099,-41.999,0,2.3761
6.41969,-41.7753,0,2.39722
6.18389,-41.5484,0,2.41559
5.96149,-41.344,0,2.43288
5.71645,-41.1272,0,2.44566
5.47747,-40.9225,0,2.45618
5.23575,-40.7211,0,2.46353
4.99156,-40.5226,0,2.46775
4.74574,-40.3262,0,2.46996
4.50904,-40.1386,0,2.46859
4.06465,-39.7875,0,2.46054
3.6411,-39.4506,0,2.44427
3.27048,-39.1483,0,2.4209
2.90511,-38.8397,0,2.39232
2.56643,-38.5387,0,2.36108
2.26387,-38.2542,0,2.32318
2.00177,-37.9909,0,2.28348
1.73829,-37.7032,0,2.24928
1.49373,-37.4156,0,2.21488
1.26786,-37.1289,0,2.1827
1.0449,-36.8242,0,2.15939
0.82441,-36.5023,0,2.14055
0.611723,-36.1752,0,2.13023
0.397504,-35.8342,0,2.12765
0.165277,-35.4598,0,2.12971
-0.0732698,-35.0746,0,2.13551
-0.313492,-34.6904,0,2.14432
-0.560958,-34.3044,0,2.15528
-0.815704,-33.9146,0,2.16462
-1.06785,-33.5381,0,2.17208
-1.32393,-33.1643,0,2.1739
-1.58205,-32.792,0,2.16986
-1.82573,-32.4402,0,2.16035
-2.06832,-32.0877,0,2.14243
-2.29283,-31.7533,0,2.11512
-2.47704,-31.4678,0,2.08332
-2.64673,-31.188,0,2.04551
-2.85872,-30.8041,0,1.98262
-3.02867,-30.453,0,1.91271
-3.17657,-30.092,0,1.83431
-3.29828,-29.7082,0,1.74764
-3.38715,-29.3156,0,1.65578
-3.43049,-29.0167,0,1.59527
-3.45575,-28.7157,0,1.53746
-3.46147,-28.4012,0,1.48924
-3.44805,-28.0743,0,1.44381
-3.41128,-27.7281,0,1.40417
-3.36106,-27.3666,0,1.36585
-3.29124,-26.97,0,1.32564
-3.20262,-26.5643,0,1.28495
-3.09085,-26.1382,0,1.24008
-2.94447,-25.6697,0,1.18829
-2.77408,-25.2095,0,1.13837
-2.57634,-24.7465,0,1.09663
-2.33825,-24.2606,0,1.05148
-2.05912,-23.7534,0,1.01663
-1.76753,-23.2679,0,0.987028
-1.60593,-23.0127,0,0.975644
-1.27699,-22.5236,0,0.953884
-1.10567,-22.2749,0,0.941688
-0.931659,-22.028,0,0.930774
-0.747429,-21.7729,0,0.918119
-0.560326,-21.5199,0,0.905934
-0.370426,-21.269,0,0.895027
-0.16981,-21.0105,0,0.880499
0.0265675,-20.7647,0,0.867485
0.234146,-20.5117,0,0.854518
0.444599,-20.2611,0,0.843335
0.650089,-20.0228,0,0.830353
0.87593,-19.7689,0,0.81842
1.09748,-19.5281,0,0.807632
1.31314,-19.299,0,0.801878
1.54875,-19.0541,0,0.79711
1.77741,-18.82,0,0.795708
1.99806,-18.5957,0,0.797573
2.2367,-18.3538,0,0.802042
2.47499,-18.1115,0,0.809835
2.71191,-17.8679,0,0.819053
2.94698,-17.6225,0,0.829481
3.3878,-17.1647,0,0.849749
3.62344,-16.9026,0,0.860715
3.85587,-16.6377,0,0.870475
4.08486,-16.3699,0,0.878213
4.31084,-16.0995,0,0.884001
4.53471,-15.8273,0,0.88667
4.75744,-15.5542,0,0.887246
4.97974,-15.2808,0,0.886863
5.20192,-15.0072,0,0.885423
5.42406,-14.7336,0,0.882404
5.64635,-14.4602,0,0.877078
5.86942,-14.1874,0,0.868262
6.09397,-13.9158,0,0.857002
6.32873,-13.6363,0,0.845317
6.56634,-13.3592,0,0.830644
6.80813,-13.0858,0,0.811678
7.05469,-12.8167,0,0.794597
7.30581,-12.5518,0,0.780462
7.56118,-12.2911,0,0.76328
7.82143,-12.0351,0,0.749294
8.08588,-11.7836,0,0.736939
8.34021,-11.5476,0,0.727836
8.62064,-11.2947,0,0.721286
8.89382,-11.0527,0,0.717707
9.17808,-10.8042,0,0.715082
9.45378,-10.565,0,0.714897
9.73939,-10.318,0,0.716873
10.0251,-10.0711,0,0.721142
10.3007,-9.83188,0,0.728369
10.5753,-9.5914,0,0.73609
10.8576,-9.34063,0,0.748218
11.1462,-9.07809,0,0.759075
11.4229,-8.82114,0,0.769031
11.7059,-8.55258,0,0.779523
11.968,-8.29858,0,0.789381
12.2453,-8.02409,0,0.797013
12.5106,-7.75549,0,0.805789
12.7907,-7.46607,0,0.810826
13.0603,-7.184,0,0.813702
13.3199,-6.90989,0,0.816541
13.5958,-6.61645,0,0.818265
13.8539,-6.34088,0,0.818439
14.129,-6.04671,0,0.817899
14.3966,-5.75863,0,0.816542
14.6544,-5.48277,0,0.813875
14.9209,-5.19777,0,0.809066
15.1801,-4.92322,0,0.801895
15.4493,-4.64088,0,0.79561
15.7205,-4.36035,0,0.786123
15.9942,-4.08224,0,0.778518
16.2611,-3.81525,0,0.771322
16.5393,-3.54164,0,0.764396
16.7926,-3.29665,0,0.758542
17.0842,-3.01878,0,0.756116
17.3497,-2.76834,0,0.754384
17.625,-2.51001,0,0.754536
17.8912,-2.26026,0,0.757644
18.1663,-2.00162,0,0.760294
18.4226,-1.75983,0,0.76428
18.6873,-1.50849,0,0.769652
18.9599,-1.24725,0,0.774558
19.2043,-1.01111,0,0.78002
19.4654,-0.756063,0,0.786802
19.7069,-0.517027,0,0.793775
19.9646,-0.258516,0,0.800103
20.1943,-0.0240169,0,0.807097
20.4486,0.237748,0,0.812751
20.6925,0.492155,0,0.819318
20.9433,0.757331,0,0.82553
21.1835,1.01515,0,0.831151
21.4306,1.28377,0,0.835032
21.668,1.54428,0,0.838653
21.9127,1.81508,0,0.841637
22.1479,2.0775,0,0.84417
22.3907,2.35004,0,0.846097
22.6247,2.61356,0,0.847325
22.8499,2.868,0,0.848614
23.0831,3.13223,0,0.849912
23.3076,3.38734,0,0.851108
23.5317,3.6428,0,0.851984
23.7556,3.89839,0,0.852264
23.9795,4.15411,0,0.853189
24.1864,4.39116,0,0.853609
24.4097,4.64729,0,0.8533
24.6164,4.88455,0,0.852996
24.8311,5.13143,0,0.851268
25.0295,5.35925,0,0.848517
25.2323,5.5922,0,0.844433
25.4309,5.81978,0,0.837407
25.8137,6.25413,0,0.81473
26.17,6.64456,0,0.786005
26.5274,7.0168,0,0.750311
26.8957,7.37818,0,0.704598
27.2584,7.70885,0,0.652746
27.6184,8.00419,0,0.586727
27.9947,8.27834,0,0.510741
28.3243,8.48702,0,0.431595
28.6799,8.67587,0,0.352103
29.014,8.82271,0,0.278831
29.3574,8.93851,0,0.192326
29.7229,9.03312,0,0.11757
30.0945,9.09926,0,0.0375479
30.4703,9.13432,0,-0.0468145
30.8729,9.13906,0,-0.131318
31.2744,9.10885,0,-0.22086
31.6596,9.0474,0,-0.302349
32.062,8.94523,0,-0.391295
32.4421,8.81225,0,-0.471131
32.8328,8.63813,0,-0.54183
33.2224,8.42595,0,-0.604264
33.6046,8.1828,0,-0.657711
33.9718,7.91745,0,-0.713246
34.3512,7.60618,0,-0.762244
34.7315,7.25745,0,-0.795989
35.0887,6.9027,0,-0.822866
35.4685,6.49971,0,-0.844245
35.8383,6.08747,0,-0.856896
36.2095,5.65972,0,-0.861546
36.4059,5.43025,0,-0.861367
36.7888,4.97932,0,-0.85002
36.9929,4.73984,0,-0.83824
37.1986,4.50177,0,-0.823191
37.4145,4.2559,0,-0.807869
37.6283,4.02001,0,-0.784536
37.8534,3.78255,0,-0.757607
38.0837,3.55011,0,-0.734254
38.3384,3.3065,0,-0.707236
38.6004,3.07089,0,-0.680549
38.8596,2.85112,0,-0.658577
39.144,2.62238,0,-0.641424
39.4135,2.4153,0,-0.627592
39.6967,2.20567,0,-0.617855
39.9931,1.99262,0,-0.609968
40.2917,1.78278,0,-0.606381
40.592,1.57528,0,-0.606395
40.8928,1.3685,0,-0.61084
41.1832,1.16887,0,-0.618769
41.4833,0.961112,0,-0.630766
41.7818,0.751055,0,-0.646689
42.0778,0.537543,0,-0.666489
42.3701,0.31898,0,-0.693559
42.6574,0.0938779,0,-0.721542
42.9291,-0.130523,0,-0.751139
43.1849,-0.354262,0,-0.77794
43.4635,-0.609115,0,-0.803643
43.6989,-0.833943,0,-0.840539
43.959,-1.10768,0,-0.869081
44.1948,-1.36956,0,-0.888605
44.4306,-1.64815,0,-0.917948
44.6582,-1.93343,0,-0.935507
44.8791,-2.22401,0,-0.951618
45.1014,-2.52922,0,-0.963313
45.3116,-2.82758,0,-0.970808
45.5258,-3.13855,0,-0.975552
45.7378,-3.45099,0,-0.978024
45.9485,-3.76426,0,-0.978315
46.159,-4.07775,0,-0.976496
46.3692,-4.39143,0,-0.972388
46.586,-4.7158,0,-0.96423
46.8038,-5.03949,0,-0.949304
47.0036,-5.32982,0,-0.928864
47.2227,-5.63734,0,-0.906509
47.4561,-5.94993,0,-0.879403
47.6977,-6.25635,0,-0.855078
47.9465,-6.55685,0,-0.833714
48.1854,-6.83277,0,-0.809473
48.4483,-7.12109,0,-0.786591
48.6896,-7.36365,0,-0.763081
48.9664,-7.63858,0,-0.743111
49.2489,-7.90773,0,-0.727922
49.537,-8.1708,0,-0.710932
49.8301,-8.42834,0,-0.698842
50.127,-8.68148,0,-0.69004
50.4364,-8.9393,0,-0.684764
50.7285,-9.17864,0,-0.680396
51.0318,-9.42403,0,-0.679085
51.336,-9.66836,0,-0.681112
51.6207,-9.89677,0,-0.686108
51.9148,-10.1336,0,-0.692834
52.2074,-10.3722,0,-0.702152
52.4886,-10.6049,0,-0.712648
52.7773,-10.8482,0,-0.725966
53.0444,-11.0782,0,-0.740548
53.2992,-11.303,0,-0.757742
53.5695,-11.5482,0,-0.776994
53.8265,-11.7894,0,-0.797619
54.0882,-12.0438,0,-0.820302
54.3346,-12.2957,0,-0.839385
54.5845,-12.5617,0,-0.859959
54.8222,-12.8246,0,-0.879726
55.0608,-13.1008,0,-0.899627
55.2933,-13.3821,0,-0.918819
55.5115,-13.6588,0,-0.938539
55.7313,-13.9502,0,-0.952818
55.931,-14.2252,0,-0.963412
56.1485,-14.5339,0,-0.970823
56.3556,-14.8344,0,-0.97456
56.5535,-15.126,0,-0.975925
56.7644,-15.4392,0,-0.974367
56.9676,-15.7424,0,-0.969018
57.1641,-16.0349,0,-0.960456
57.3694,-16.3367,0,-0.946706
57.5771,-16.6368,0,-0.931219
57.789,-16.934,0,-0.912906
58.006,-17.2275,0,-0.892446
58.2207,-17.5069,0,-0.872152
58.4488,-17.7919,0,-0.849207
58.6751,-18.062,0,-0.826616
58.916,-18.3362,0,-0.803158
59.155,-18.5951,0,-0.782992
59.4083,-18.858,0,-0.763722
59.6474,-19.0954,0,-0.748168
59.8924,-19.3309,0,-0.72931
60.1513,-19.57,0,-0.713699
60.4047,-19.7964,0,-0.701007
60.6711,-20.027,0,-0.689021
60.9498,-20.2627,0,-0.679804
61.2023,-20.4709,0,-0.669115
61.4776,-20.6909,0,-0.660143
61.7454,-20.9001,0,-0.658033
62.0245,-21.1153,0,-0.656945
62.2943,-21.3219,0,-0.659213
62.5742,-21.5359,0,-0.665312
62.8438,-21.7429,0,-0.675367
63.1126,-21.9507,0,-0.688092
63.3601,-22.145,0,-0.70368
63.6242,-22.3589,0,-0.728655
63.8745,-22.5697,0,-0.752142
64.1201,-22.7859,0,-0.777077
64.3611,-23.0072,0,-0.801656
64.5959,-23.2352,0,-0.826207
64.8073,-23.4509,0,-0.850532
65.0306,-23.6901,0,-0.874019
65.2407,-23.9275,0,-0.896617
65.4518,-24.1775,0,-0.918645
65.6494,-24.4224,0,-0.935001
65.8414,-24.6717,0,-0.952794
66.0279,-24.925,0,-0.967291
66.217,-25.1921,0,-0.977986
66.4019,-25.4621,0,-0.987332
66.5837,-25.7342,0,-0.992208
66.7627,-26.0081,0,-0.993509
66.9407,-26.2827,0,-0.991798
67.1178,-26.5579,0,-0.986354
67.3019,-26.8435,0,-0.975491
67.4875,-27.1282,0,-0.959993
67.6758,-27.4111,0,-0.942662
67.8688,-27.6907,0,-0.919866
68.0668,-27.967,0,-0.897691
68.2704,-28.239,0,-0.871383
68.4884,-28.5159,0,-0.843874
68.7061,-28.7769,0,-0.815352
68.9313,-29.0313,0,-0.783179
69.1646,-29.2784,0,-0.756438
69.4228,-29.5363,0,-0.73098
69.6722,-29.7674,0,-0.707972
69.9251,-29.9944,0,-0.689544
70.2029,-30.2312,0,-0.66986
70.4854,-30.4622,0,-0.656712
70.7623,-30.6803,0,-0.644704
71.0526,-30.9016,0,-0.636102
71.3457,-31.1191,0,-0.630826
71.651,-31.3412,0,-0.629718
71.9467,-31.5551,0,-0.63255
72.2427,-31.7687,0,-0.640804
72.548,-31.9908,0,-0.653227
72.8414,-32.2079,0,-0.668927
73.1424,-32.4359,0,-0.686648
73.4295,-32.6613,0,-0.710845
73.6927,-32.8762,0,-0.735416
73.9799,-33.1213,0,-0.762942
74.2417,-33.3572,0,-0.792162
74.5149,-33.6179,0,-0.820513
74.7727,-33.8762,0,-0.842034
75.0061,-34.1231,0,-0.870818
75.2569,-34.4054,0,-0.896849
75.4832,-34.6755,0,-0.919788
75.6953,-34.9514,0,-0.939552
75.9151,-35.2427,0,-0.958095
76.1145,-35.5179,0,-0.970207
76.3237,-35.817,0,-0.981479
76.5217,-36.1085,0,-0.988826
76.7233,-36.4128,0,-0.993938
76.9222,-36.7188,0,-0.995983
77.1134,-37.0149,0,-0.993106
77.3039,-37.3114,0,-0.987233
77.4946,-37.6077,0,-0.976595
77.6803,-37.8923,0,-0.961135
77.8827,-38.196,0,-0.942473
78.0827,-38.4862,0,-0.919712
78.288,-38.7726,0,-0.89594
78.5,-39.0541,0,-0.87023
78.7114,-39.3202,0,-0.843841
78.9461,-39.5997,0,-0.816633
79.1801,-39.8632,0,-0.788031
79.4217,-40.1197,0,-0.76273
79.679,-40.3786,0,-0.741959
79.9334,-40.6225,0,-0.71734
80.2037,-40.8677,0,-0.698564
80.4742,-41.1033,0,-0.683237
80.7543,-41.3372,0,-0.672952
81.0479,-41.5747,0,-0.664729
81.3348,-41.8003,0,-0.658706
81.6335,-42.0313,0,-0.658086
81.9329,-42.2614,0,-0.661655
82.2126,-42.4757,0,-0.66711
82.5116,-42.7062,0,-0.676167
82.8093,-42.9385,0,-0.691307
83.0946,-43.1661,0,-0.708533
83.3675,-43.3891,0,-0.729119
83.6462,-43.6248,0,-0.755171
83.9191,-43.8672,0,-0.786801
84.1771,-44.1072,0,-0.81176
84.418,-44.3469,0,-0.847922
84.6517,-44.5936,0,-0.873812
84.8694,-44.8379,0,-0.90318
85.0804,-45.088,0,-0.926939
85.2756,-45.3347,0,-0.942615
85.4654,-45.5857,0,-0.961134
85.8069,-46.0687,0,-0.981711
86.1089,-46.5407,0,-0.985257
86.4188,-47.0148,0,-0.971257
86.7318,-47.4868,0,-0.944969
87.0546,-47.9522,0,-0.911032
87.3853,-48.3964,0,-0.871735
87.7349,-48.8258,0,-0.836882
88.1104,-49.2497,0,-0.812442
88.4978,-49.6628,0,-0.798905
88.893,-50.0686,0,-0.795444
89.2733,-50.4536,0,-0.800344
89.6539,-50.8384,0,-0.815425
90.0207,-51.2179,0,-0.840711
90.3468,-51.5678,0,-0.8772
90.646,-51.908,0,-0.921916
90.9476,-52.2792,0,-0.973082
91.2162,-52.644,0,-1.02766
91.4654,-53.0224,0,-1.1007
91.6913,-53.415,0,-1.17562
91.8851,-53.8244,0,-1.26115
92.0466,-54.2477,0,-1.33107
92.1755,-54.695,0,-1.4199
92.2653,-55.1531,0,-1.50697
92.3203,-55.6281,0,-1.58153
92.3381,-56.1185,0,-1.67092
92.3134,-56.6212,0,-1.75468
92.2436,-57.1196,0,-1.84336
92.1241,-57.6344,0,-1.92109
91.9537,-58.1478,0,-1.99783
91.7327,-58.6692,0,-2.05741
91.4663,-59.1972,0,-2.1011
91.1815,-59.7012,0,-2.13135
91.0187,-59.9705,0,-2.14497
90.8583,-60.2265,0,-2.15599
90.6951,-60.4806,0,-2.16606
90.5225,-60.7437,0,-2.17612
90.3285,-60.9878,0,-2.18933
90.1501,-61.247,0,-2.1993
89.9623,-61.515,0,-2.21191
89.7793,-61.7709,0,-2.22889
89.5936,-62.0249,0,-2.24633
89.4042,-62.2762,0,-2.27153
89.2097,-62.5235,0,-2.29884
89.009,-62.7658,0,-2.33179
88.801,-63.0019,0,-2.3613
88.5862,-63.2318,0,-2.39044
88.3746,-63.4474,0,-2.42052
88.1569,-63.6568,0,-2.45357
87.9248,-63.8692,0,-2.48761
87.6954,-64.0657,0,-2.52856
87.2354,-64.417,0,-2.62071
86.7472,-64.7277,0,-2.71504
86.244,-64.9873,0,-2.81467
85.7527,-65.1816,0,-2.92241
85.2119,-65.3282,0,-3.02168
84.7031,-65.4131,0,-3.12725
84.1508,-65.4501,0,3.06718
83.6227,-65.4327,0,2.97566
83.1231,-65.3721,0,2.88309
82.6062,-65.2618,0,2.80593
82.1128,-65.1113,0,2.72403
81.6331,-64.9215,0,2.6421
81.1921,-64.7062,0,2.56403
80.7586,-64.4505,0,2.49075
80.3569,-64.1686,0,2.42781
79.9585,-63.8272,0,2.36932
79.5814,-63.4751,0,2.32769
79.2034,-63.0878,0,2.29647
78.8319,-62.6771,0,2.2752
78.4465,-62.2284,0,2.26098
78.078,-61.7818,0,2.2565
77.7119,-61.3333,0,2.25816
77.5208,-61.0994,0,2.25994
77.3296,-60.8656,0,2.26238
77.1382,-60.6319,0,2.26528
76.9381,-60.389,0,2.27023
76.7451,-60.1567,0,2.27448
76.5433,-59.9152,0,2.28015
76.3326,-59.6649,0,2.28803
76.1371,-59.4346,0,2.29806
75.7492,-58.99,0,2.32463
75.5473,-58.7654,0,2.34362
75.3254,-58.5248,0,2.36179
75.1169,-58.3063,0,2.38417
74.9041,-58.0919,0,2.40782
74.6773,-57.8738,0,2.43292
74.4542,-57.6702,0,2.45983
74.2158,-57.4648,0,2.48241
73.9722,-57.2657,0,2.50317
73.7344,-57.0794,0,2.52035
73.4822,-56.8914,0,2.53579
73.2263,-56.7083,0,2.54848
72.9676,-56.5292,0,2.55661
72.7169,-56.3606,0,2.5635
72.4645,-56.1947,0,2.56709
72.2003,-56.0239,0,2.56908
71.9355,-55.8538,0,2.56778
71.6813,-55.6907,0,2.56515
71.4271,-55.5274,0,2.56086
71.1628,-55.3567,0,2.55537
70.8887,-55.1781,0,2.54851
70.6214,-55.0071,0,2.54026
70.3703,-54.8393,0,2.5324
70.1102,-54.6622,0,2.52169
69.8517,-54.4828,0,2.51324
69.5848,-54.2935,0,2.50198
69.3096,-54.0942,0,2.49391
69.0564,-53.9073,0,2.48256
68.7952,-53.7103,0,2.47215
68.5261,-53.5027,0,2.46123
68.279,-53.3079,0,2.45146
68.0144,-53.0947,0,2.44004
67.762,-52.8863,0,2.43015
67.5117,-52.6756,0,2.42081
67.2537,-52.4544,0,2.41227
67.0167,-52.2475,0,2.4029
66.763,-52.0213,0,2.39194
66.521,-51.8012,0,2.38232
66.2717,-51.5701,0,2.37225
66.0431,-51.3539,0,2.36235
65.7988,-51.1178,0,2.3532
65.5748,-50.8968,0,2.34496
65.3348,-50.6562,0,2.337
64.9021,-50.2006,0,2.31656
64.6851,-49.9726,0,2.30116
64.4535,-49.724,0,2.28784
64.2255,-49.472,0,2.27184
64.0182,-49.2354,0,2.25583
63.7984,-48.9762,0,2.23881
63.5988,-48.7329,0,2.22385
63.3872,-48.467,0,2.21027
63.1796,-48.198,0,2.19381
62.9917,-47.9456,0,2.17917
62.7927,-47.6701,0,2.16735
62.6121,-47.4125,0,2.15605
62.4277,-47.1422,0,2.14469
62.2406,-46.8585,0,2.13384
62.0705,-46.5938,0,2.1278
61.8959,-46.317,0,2.12273
61.73,-46.0497,0,2.11931
61.559,-45.7707,0,2.11696
61.389,-45.491,0,2.11632
61.2261,-45.2219,0,2.11733
61.0723,-44.9619,0,2.12014
60.9091,-44.6929,0,2.12487
60.7457,-44.424,0,2.12931
60.575,-44.1448,0,2.13647
60.4094,-43.8772,0,2.14662
60.2421,-43.6108,0,2.15697
60.0788,-43.3566,0,2.17034
59.9126,-43.1044,0,2.18065
59.7435,-42.8541,0,2.19042
59.4122,-42.3794,0,2.21206
59.0777,-41.9223,0,2.23563
58.7489,-41.4924,0,2.25748
58.4265,-41.0896,0,2.28105
58.1118,-40.7129,0,2.3023
57.7971,-40.3527,0,2.32344
57.4929,-40.017,0,2.35424
57.1556,-39.6667,0,2.38835
56.8052,-39.3229,0,2.42844
56.4517,-39.0009,0,2.47045
56.0953,-38.7012,0,2.52388
55.7048,-38.4038,0,2.57558
55.3331,-38.1449,0,2.63938
54.9339,-37.9052,0,2.70699
54.5428,-37.7027,0,2.78848
54.1386,-37.5279,0,2.86563
53.7098,-37.3819,0,2.94898
53.2825,-37.2754,0,3.03782
52.8356,-37.2052,0,3.12473
52.3712,-37.1719,0,-3.07449
51.9309,-37.1774,0,-2.99403
51.4677,-37.224,0,-2.89794
51.0233,-37.3115,0,-2.81945
50.575,-37.4369,0,-2.74508
50.1499,-37.5935,0,-2.67499
49.7372,-37.7803,0,-2.61251
49.3381,-37.9947,0,-2.56087
48.9413,-38.2383,0,-2.51406
48.5566,-38.5006,0,-2.46736
48.2044,-38.7807,0,-2.41974
47.8565,-39.0709,0,-2.37174
47.5487,-39.3497,0,-2.32624
47.2368,-39.6606,0,-2.27467
46.9657,-39.9584,0,-2.21952
46.6932,-40.2883,0,-2.16688
46.4542,-40.6124,0,-2.10535
46.2333,-40.9491,0,-2.04103
46.0399,-41.2878,0,-1.97233
45.8639,-41.65,0,-1.90116
45.718,-42.0118,0,-1.83025
45.6054,-42.3609,0,-1.75664
45.5203,-42.7028,0,-1.68503
45.4608,-43.0373,0,-1.61651
45.4273,-43.3627,0,-1.54687
45.4151,-43.7778,0,-1.46796
45.4366,-44.1421,0,-1.39337
45.477,-44.454,0,-1.32317
45.5443,-44.7871,0,-1.26201
45.6555,-45.1801,0,-1.20128
45.7542,-45.4656,0,-1.1528
45.8807,-45.781,0,-1.1159
46.0369,-46.1247,0,-1.07994
46.2254,-46.4947,0,-1.05058
46.4301,-46.8705,0,-1.02403
46.6587,-47.2617,0,-0.990509
46.9125,-47.667,0,-0.961219
47.1865,-48.0743,0,-0.930215
47.474,-48.4721,0,-0.898064
47.7746,-48.8601,0,-0.879014
48.0761,-49.2237,0,-0.861536
48.4021,-49.6072,0,-0.852387
48.75,-50.0053,0,-0.848417
49.1074,-50.4116,0,-0.844613
49.4556,-50.8094,0,-0.834062
49.8061,-51.2051,0,-0.804734
50.1562,-51.5842,0,-0.766051
50.5286,-51.9593,0,-0.726766
50.916,-52.3189,0,-0.685779
51.3083,-52.6541,0,-0.647197
51.7143,-52.9725,0,-0.609129
52.1551,-53.2799,0,-0.582601
52.605,-53.5806,0,-0.565857
53.0618,-53.8709,0,-0.562189
53.5418,-54.1715,0,-0.567179
54.0217,-54.4723,0,-0.580886
54.4981,-54.7786,0,-0.60018
54.9792,-55.1006,0,-0.619718
55.4534,-55.4327,0,-0.641718
55.9203,-55.775,0,-0.662292
56.3899,-56.1348,0,-0.68107
56.8325,-56.4881,0,-0.696768
57.0659,-56.6799,0,-0.704121
57.5113,-57.0574,0,-0.716448
57.7406,-57.254,0,-0.722499
58.177,-57.6345,0,-0.735187
58.403,-57.8349,0,-0.741083
58.6277,-58.0367,0,-0.748527
58.8509,-58.2402,0,-0.756786
59.0725,-58.4455,0,-0.76302
59.2931,-58.6518,0,-0.769007
59.5121,-58.8599,0,-0.776981
59.7386,-59.0783,0,-0.784225
60.1687,-59.5026,0,-0.801299
60.3814,-59.717,0,-0.812072
60.5925,-59.9331,0,-0.822089
60.8017,-60.151,0,-0.834005
61.0084,-60.3712,0,-0.847914
61.2205,-60.6036,0,-0.860192
61.4213,-60.8293,0,-0.872791
61.8144,-61.2881,0,-0.89717
62.1783,-61.7458,0,-0.920575
62.3648,-61.9834,0,-0.929927
62.7292,-62.4653,0,-0.948344
63.077,-62.9438,0,-0.967294
63.2511,-63.1906,0,-0.97483
63.4229,-63.4391,0,-0.981126
63.5928,-63.6888,0,-0.985919
63.7605,-63.94,0,-0.991435
64.0784,-64.4239,0,-0.99689
64.2431,-64.6771,0,-0.998603
64.5569,-65.1636,0,-1.00145
64.8758,-65.6619,0,-1.00185
65.1805,-66.1393,0,-1.00046
65.485,-66.6168,0,-0.994382
65.7928,-67.0991,0,-0.982771
66.1038,-67.5725,0,-0.97011
66.4219,-68.041,0,-0.959123
66.5943,-68.2891,0,-0.955078
66.928,-68.7622,0,-0.949568
67.1104,-69.0186,0,-0.946866
67.2933,-69.2746,0,-0.944076
67.4766,-69.5304,0,-0.940208
67.6533,-69.7754,0,-0.934307
67.8457,-70.04,0,-0.928039
68.0396,-70.3037,0,-0.920581
68.2353,-70.5659,0,-0.913247
68.433,-70.8267,0,-0.905732
68.6328,-71.0859,0,-0.898346
68.8502,-71.3632,0,-0.892571
69.0615,-71.6294,0,-0.886105
69.2825,-71.9038,0,-0.879154
69.4975,-72.167,0,-0.872954
69.7232,-72.4372,0,-0.866247
