x, y, z, theta
95.5211,0.0413895,0,-0.0230508
95.8231,0.0344467,0,-0.0228839
96.1251,0.0274963,0,-0.0230141
96.4397,0.0202866,0,-0.0229819
96.7417,0.0133362,0,-0.0229374
97.0507,0.00617981,0,-0.0227025
97.403,-0.00178528,0,-0.0218163
97.7553,-0.00973511,0,-0.0208492
98.1706,-0.0186157,0,-0.0189148
98.5103,-0.0254211,0,-0.017903
98.913,-0.0329208,0,-0.0163886
99.2905,-0.0393829,0,-0.015602
99.6807,-0.0455246,0,-0.0145714
100.096,-0.0517654,0,-0.0136428
100.448,-0.0566635,0,-0.0131834
100.838,-0.0618744,0,-0.0121179
101.217,-0.066597,0,-0.01138
101.607,-0.0711365,0,-0.0106683
101.997,-0.075386,0,-0.00956428
102.374,-0.0791779,0,-0.00868505
102.752,-0.0825806,0,-0.00737837
103.142,-0.0857849,0,-0.0062144
103.532,-0.0883636,0,-0.00434691
103.922,-0.0904846,0,-0.00308417
104.3,-0.0919647,0,-0.0012191
104.703,-0.0928345,0,0.000841172
105.08,-0.0929871,0,0.00343925
105.465,-0.092453,0,0.00614753
105.855,-0.0910492,0,0.0105813
106.245,-0.0885468,0,0.0158611
106.635,-0.0845184,0,0.0226402
107.025,-0.0783997,0,0.0325939
107.403,-0.0699158,0,0.0442615
107.793,-0.0578308,0,0.0615951
108.195,-0.0401917,0,0.08213
108.622,-0.0132294,0,0.113729
108.948,0.0151215,0,0.143616
109.323,0.0583038,0,0.182006
109.731,0.12262,0,0.230197
110.053,0.183884,0,0.267705
110.42,0.269653,0,0.322876
110.759,0.367065,0,0.383612
111.092,0.481384,0,0.441079
111.429,0.620987,0,0.515223
111.833,0.826355,0,0.606794
112.111,0.998611,0,0.677204
112.368,1.18123,0,0.737697
112.621,1.38794,0,0.801583
112.861,1.61003,0,0.860962
113.103,1.86801,0,0.926925
113.322,2.12773,0,0.98345
113.523,2.40182,0,1.0525
113.721,2.7085,0,1.10775
113.892,3.01614,0,1.1672
114.055,3.3567,0,1.22788
114.196,3.70703,0,1.27948
114.321,4.07645,0,1.32652
114.424,4.4397,0,1.36558
114.515,4.83182,0,1.40027
114.594,5.2397,0,1.42723
114.654,5.65273,0,1.44776
114.708,6.05196,0,1.46609
114.754,6.46468,0,1.48162
114.795,6.89059,0,1.49252
114.833,7.32953,0,1.50311
114.863,7.74371,0,1.51296
114.891,8.17076,0,1.522
114.913,8.59805,0,1.5301
114.932,9.01299,0,1.53611
114.948,9.4406,0,1.54228
114.961,9.84314,0,1.54684
114.972,10.2585,0,1.55171
114.981,10.6737,0,1.55505
114.987,11.0638,0,1.55623
114.993,11.4666,0,1.55744
114.999,11.8693,0,1.55833
115.004,12.272,0,1.55922
115.008,12.6621,0,1.56073
115.013,13.0649,0,1.56104
115.017,13.455,0,1.56125
115.021,13.8577,0,1.56104
115.024,14.2605,0,1.56076
115.028,14.6477,0,1.55939
115.032,15.0378,0,1.55866
115.037,15.428,0,1.55757
115.042,15.8307,0,1.55673
115.047,16.2082,0,1.55567
115.052,16.5983,0,1.5541
115.057,16.9759,0,1.54945
115.063,17.3534,0,1.54314
115.07,17.7183,0,1.53274
115.079,18.0832,0,1.51906
115.091,18.448,0,1.49841
115.109,18.7896,0,1.4721
115.132,19.116,0,1.43903
115.164,19.4417,0,1.40448
115.208,19.7786,0,1.36454
115.262,20.1014,0,1.32027
115.326,20.4094,0,1.27118
115.403,20.7144,0,1.21583
115.493,21.0027,0,1.15355
115.599,21.2856,0,1.09632
115.721,21.5618,0,1.03691
115.86,21.8299,0,0.97519
116.018,22.0908,0,0.915099
116.187,22.3407,0,0.858328
116.38,22.5898,0,0.795556
116.587,22.8264,0,0.733828
116.809,23.0493,0,0.672977
117.063,23.2753,0,0.611413
117.32,23.4768,0,0.550426
117.61,23.6772,0,0.494673
117.912,23.8592,0,0.437398
118.224,24.0229,0,0.383319
118.556,24.1737,0,0.331162
118.895,24.307,0,0.283312
119.242,24.4217,0,0.234599
119.594,24.5192,0,0.187519
119.962,24.6024,0,0.144345
120.334,24.6673,0,0.104911
120.733,24.7185,0,0.072693
121.134,24.7545,0,0.0517629
121.524,24.7787,0,0.0345429
121.926,24.7965,0,0.0208658
122.329,24.8078,0,0.00977504
122.744,24.8136,0,0.00341268
123.156,24.8114,0,0.000619627
123.584,24.8118,0,-0.000675873
124,24.8115,0,-0.00142494
124.44,24.8111,0,-0.00166106
124.881,24.8104,0,-0.0019136
125.309,24.8096,0,-0.00195614
125.749,24.8089,0,-0.00183323
126.177,24.8082,0,-0.00185976
126.617,24.8074,0,-0.00200737
127.071,24.8066,0,-0.0018915
127.524,24.8058,0,-0.0020865
127.951,24.8047,0,-0.00203787
128.392,24.8038,0,-0.00209076
128.845,24.8029,0,-0.00233706
129.298,24.802,0,-0.00204046
129.751,24.801,0,-0.00243216
130.204,24.8,0,-0.00263972
130.67,24.799,0,-0.00309405
131.123,24.7977,0,-0.00446414
131.576,24.7959,0,-0.00611873
132.029,24.7934,0,-0.00700981
132.482,24.7905,0,-0.00747179
132.911,24.7872,0,-0.00856884
133.389,24.7833,0,-0.00846041
133.842,24.7796,0,-0.00830221
134.308,24.7758,0,-0.00793236
134.761,24.7721,0,-0.00735239
135.239,24.7686,0,-0.00582251
135.692,24.7659,0,-0.00496195
136.158,24.7634,0,-0.00435531
136.623,24.7612,0,-0.00381066
137.089,24.7593,0,-0.00377161
137.542,24.7575,0,-0.00329151
138.001,24.7558,0,-0.00315083
138.467,24.7542,0,-0.00334671
138.908,24.7527,0,-0.00274662
139.361,24.7515,0,-0.00209206
139.814,24.7503,0,-0.00236856
140.254,24.7495,0,-0.00245831
140.707,24.7483,0,-0.00330162
141.148,24.7469,0,-0.00357711
141.576,24.7455,0,-0.0037995
142.029,24.7438,0,-0.00446926
142.469,24.7418,0,-0.00495347
142.905,24.7398,0,-0.00542252
143.345,24.7375,0,-0.00587494
143.798,24.735,0,-0.00650507
144.226,24.7323,0,-0.00736457
144.667,24.7293,0,-0.00798299
145.107,24.7258,0,-0.00904084
145.535,24.722,0,-0.010455
145.963,24.7178,0,-0.0110312
146.416,24.7129,0,-0.0119922
146.844,24.708,0,-0.0130675
147.272,24.7027,0,-0.0143053
147.698,24.6969,0,-0.0154974
148.139,24.6904,0,-0.0173786
148.592,24.683,0,-0.0185025
149.019,24.6753,0,-0.0205557
149.46,24.6667,0,-0.0221604
149.913,24.657,0,-0.0240744
150.341,24.647,0,-0.0260887
150.794,24.6355,0,-0.0278911
151.234,24.6235,0,-0.0298466
151.649,24.6114,0,-0.0316991
152.102,24.5974,0,-0.0334555
152.535,24.5835,0,-0.0347533
152.975,24.5685,0,-0.0361198
153.402,24.5533,0,-0.0368177
153.843,24.5373,0,-0.0373803
154.27,24.5214,0,-0.0376812
154.698,24.5055,0,-0.0378147
155.126,24.4895,0,-0.0378417
155.566,24.4729,0,-0.038236
155.993,24.4567,0,-0.0382471
156.421,24.4404,0,-0.038276
156.849,24.4243,0,-0.0381033
157.264,24.4086,0,-0.0375304
157.692,24.3925,0,-0.0376683
158.082,24.378,0,-0.037137
158.509,24.3621,0,-0.0368323
158.924,24.3468,0,-0.0367235
159.327,24.3322,0,-0.0363256
159.717,24.318,0,-0.0362897
160.094,24.3043,0,-0.036333
160.472,24.2907,0,-0.0359554
160.849,24.2771,0,-0.0358042
161.226,24.2636,0,-0.0359593
161.573,24.2512,0,-0.0363178
161.938,24.2387,0,-0.0386926
162.29,24.227,0,-0.0448938
162.605,24.2168,0,-0.0566612
162.932,24.2039,0,-0.072764
163.246,24.1869,0,-0.0917121
163.56,24.1649,0,-0.113469
163.886,24.1361,0,-0.13996
164.199,24.1009,0,-0.172152
164.51,24.0576,0,-0.205407
164.82,24.0046,0,-0.248211
165.134,23.9398,0,-0.291309
165.427,23.8663,0,-0.3363
165.728,23.7757,0,-0.390409
166.141,23.623,0,-0.472135
166.417,23.5007,0,-0.529866
166.686,23.3628,0,-0.589139
166.967,23.196,0,-0.660702
167.227,23.0185,0,-0.718988
167.561,22.7514,0,-0.809975
167.791,22.5367,0,-0.873956
168.008,22.3086,0,-0.932609
168.209,22.0666,0,-0.993967
168.395,21.8131,0,-1.0532
168.565,21.5484,0,-1.12176
168.717,21.2733,0,-1.17886
168.858,20.9777,0,-1.23728
168.98,20.6741,0,-1.29324
169.084,20.364,0,-1.3443
169.174,20.0363,0,-1.38758
169.248,19.7048,0,-1.43236
169.306,19.3827,0,-1.47648
169.336,19.0436,0,-1.51792
169.364,18.6924,0,-1.54952
169.379,18.3277,0,-1.57412
169.383,17.9502,0,-1.5949
169.378,17.56,0,-1.60818
169.365,17.1701,0,-1.61655
169.347,16.7677,0,-1.6214
169.327,16.3654,0,-1.6247
169.306,15.9633,0,-1.62676
169.284,15.5485,0,-1.6298
169.26,15.1212,0,-1.63603
169.235,14.6968,0,-1.64549
169.207,14.2699,0,-1.65515
169.172,13.8307,0,-1.66481
169.136,13.417,0,-1.67428
169.093,12.9786,0,-1.68322
169.046,12.5406,0,-1.69163
168.994,12.1031,0,-1.6979
168.939,11.666,0,-1.7023
168.884,11.2417,0,-1.70453
168.823,10.7927,0,-1.70494
168.766,10.3686,0,-1.70507
168.709,9.95581,0,-1.70529
168.652,9.53175,0,-1.70445
168.595,9.10768,0,-1.70398
168.539,8.69611,0,-1.70159
168.486,8.30948,0,-1.69654
168.433,7.91023,0,-1.68763
168.384,7.52316,0,-1.67793
168.339,7.13565,0,-1.66349
168.302,6.78522,0,-1.64835
168.267,6.40924,0,-1.63118
168.24,6.07051,0,-1.61266
168.218,5.72191,0,-1.58301
168.204,5.3698,0,-1.54933
168.2,5.01743,0,-1.51353
168.208,4.65259,0,-1.46944
168.23,4.30089,0,-1.42324
168.268,3.93799,0,-1.36592
168.325,3.59016,0,-1.30895
168.399,3.2458,0,-1.2575
168.493,2.90616,0,-1.1958
168.601,2.58398,0,-1.13736
168.726,2.26793,0,-1.07469
168.868,1.98364,0,-1.00674
169.027,1.69798,0,-0.943993
169.204,1.42261,0,-0.880635
169.398,1.15947,0,-0.816244
169.609,0.909348,0,-0.754265
169.827,0.682297,0,-0.693573
170.077,0.452103,0,-0.640961
170.34,0.237625,0,-0.584928
170.615,0.0378265,0,-0.532097
170.911,-0.153549,0,-0.480012
171.228,-0.335175,0,-0.433209
171.576,-0.51059,0,-0.383003
171.922,-0.662674,0,-0.333407
172.275,-0.796707,0,-0.286668
172.658,-0.922043,0,-0.251447
173.033,-1.02858,0,-0.214121
173.424,-1.12482,0,-0.178761
173.831,-1.20949,0,-0.142679
174.228,-1.27655,0,-0.103352
174.652,-1.33136,0,-0.0711248
175.041,-1.36658,0,-0.0416547
175.48,-1.39085,0,-0.0217365
175.883,-1.39804,0,-0.00764887
176.311,-1.40346,0,0.00224692
176.727,-1.40369,0,0.00843761
177.154,-1.40002,0,0.0107743
177.582,-1.39488,0,0.00959611
178.01,-1.39021,0,0.0069384
178.438,-1.38657,0,0.00500477
178.879,-1.38374,0,0.00341016
179.307,-1.38181,0,0.00150219
179.734,-1.38062,0,-0.000718418
180.175,-1.38043,0,-0.00277369
180.596,-1.38144,0,-0.00502857
181.036,-1.38306,0,-0.00674889
181.464,-1.38567,0,-0.008397
181.892,-1.38898,0,-0.00907168
182.32,-1.3925,0,-0.0101149
182.76,-1.39679,0,-0.0127165
183.176,-1.40157,0,-0.013968
183.604,-1.40724,0,-0.0158696
184.031,-1.41357,0,-0.0173317
184.472,-1.42096,0,-0.0180222
184.912,-1.42885,0,-0.0184712
185.342,-1.43692,0,-0.0185986
185.795,-1.44536,0,-0.0184074
186.236,-1.45341,0,-0.0183533
186.676,-1.46144,0,-0.0179483
187.129,-1.46957,0,-0.0178244
187.582,-1.47751,0,-0.0172849
188.035,-1.48524,0,-0.0163141
188.488,-1.49266,0,-0.0158103
188.941,-1.49985,0,-0.0152563
189.382,-1.50656,0,-0.0148471
189.835,-1.51334,0,-0.0140157
190.272,-1.51949,0,-0.0138393
190.751,-1.52599,0,-0.0129404
191.204,-1.53189,0,-0.0122762
191.669,-1.53763,0,-0.0119371
192.135,-1.54318,0,-0.0110277
192.601,-1.54837,0,-0.0106731
193.066,-1.5533,0,-0.00986395
193.532,-1.55789,0,-0.00920448
194.01,-1.56238,0,-0.00891246
194.463,-1.56648,0,-0.00841367
194.929,-1.57039,0,-0.00794824
195.398,-1.57391,0,-0.00725578
195.7,-1.57616,0,-0.00722243
196.116,-1.57918,0,-0.00668769
196.581,-1.58237,0,-0.00642517
197.06,-1.58545,0,-0.00564517
197.538,-1.58812,0,-0.00494059
198.067,-1.59081,0,-0.00434764
198.507,-1.59268,0,-0.00375201
198.998,-1.59451,0,-0.00281034
199.476,-1.59599,0,-0.00210385
199.954,-1.59705,0,-0.000665834
200.476,-1.59723,0,0.00079677
200.916,-1.59705,0,0.00163853
201.395,-1.59625,0,0.00284659
201.873,-1.59499,0,0.00428088
202.339,-1.59305,0,0.00581078
202.867,-1.59018,0,0.00665141
203.295,-1.58743,0,0.0078293
203.773,-1.58391,0,0.00875493
204.252,-1.57982,0,0.00993753
204.73,-1.57509,0,0.0114843
205.258,-1.56917,0,0.0126437
205.686,-1.56421,0,0.0132557
206.152,-1.55801,0,0.0150814
206.63,-1.55115,0,0.0155609
207.096,-1.54407,0,0.0164544
207.599,-1.53592,0,0.0173488
208.078,-1.52786,0,0.0178751
208.556,-1.51913,0,0.0175407
208.996,-1.51129,0,0.0163206
209.462,-1.50342,0,0.0154192
209.94,-1.49576,0,0.0138813
210.393,-1.48914,0,0.0125245
210.807,-1.48392,0,0.0115018
211.26,-1.47849,0,0.00965506
211.726,-1.47342,0,0.0090902
212.229,-1.46866,0,0.00855083
212.657,-1.4649,0,0.00820735
213.123,-1.461,0,0.00845115
213.576,-1.45709,0,0.0084827
214.054,-1.45291,0,0.00934279
214.532,-1.44849,0,0.00936835
214.998,-1.44409,0,0.0112494
215.463,-1.43921,0,0.01214
215.961,-1.4332,0,0.0134784
216.452,-1.4267,0,0.015174
216.942,-1.41949,0,0.0160448
217.433,-1.41168,0,0.0176119
217.937,-1.40314,0,0.0186826
218.452,-1.39365,0,0.0203127
218.968,-1.38327,0,0.0214905
219.472,-1.37268,0,0.022876
219.988,-1.36105,0,0.024227
220.491,-1.349,0,0.0257281
220.994,-1.33633,0,0.0266933
221.463,-1.32346,0,0.0281901
221.966,-1.30951,0,0.0291684
222.47,-1.29498,0,0.030329
222.948,-1.2807,0,0.0317951
223.438,-1.26526,0,0.0330853
223.929,-1.24915,0,0.0344837
224.445,-1.23154,0,0.0360342
224.872,-1.21637,0,0.0374527
225.338,-1.19937,0,0.0391536
225.79,-1.18243,0,0.0424606
226.243,-1.16461,0,0.0479337
226.684,-1.14569,0,0.0548112
227.124,-1.12418,0,0.0652957
227.577,-1.09888,0,0.0782219
227.991,-1.07162,0,0.0972781
228.405,-1.03912,0,0.122073
228.868,-0.993011,0,0.160269
229.218,-0.946869,0,0.194515
229.603,-0.88266,0,0.236579
229.985,-0.805634,0,0.278017
230.34,-0.719055,0,0.328018
230.725,-0.604065,0,0.383854
231.021,-0.49884,0,0.433364
231.324,-0.37561,0,0.488536
231.698,-0.196564,0,0.560302
232.091,0.0293274,0,0.645633
232.342,0.197021,0,0.709767
232.679,0.460266,0,0.797043
232.922,0.680267,0,0.861688
233.14,0.906342,0,0.926189
233.351,1.15671,0,1.00047
233.545,1.42004,0,1.06928
233.727,1.70599,0,1.14008
233.887,2.00562,0,1.20967
234.029,2.32816,0,1.28142
234.145,2.66068,0,1.3439
234.247,3.02429,0,1.39031
234.331,3.41803,0,1.43906
234.392,3.80331,0,1.47305
234.44,4.21585,0,1.50437
234.474,4.62982,0,1.5247
234.497,5.04449,0,1.53857
234.513,5.47214,0,1.55126
234.516,5.90369,0,1.55749
234.523,6.34415,0,1.5603
234.527,6.78461,0,1.56233
234.531,7.2251,0,1.56342
234.535,7.66559,0,1.56452
234.538,8.11868,0,1.56563
234.54,8.5466,0,1.56622
234.542,8.96194,0,1.56737
234.544,9.4024,0,1.56777
234.545,9.83032,0,1.56853
234.547,10.2457,0,1.5693
234.546,10.6476,0,1.56998
234.546,11.063,0,1.57092
234.546,11.4658,0,1.5716
234.546,11.8811,0,1.57201
234.546,12.2964,0,1.57289
234.545,12.6992,0,1.57302
234.544,13.1145,0,1.57201
234.542,13.5172,0,1.5703
234.542,13.9074,0,1.56614
234.542,14.3102,0,1.56078
234.543,14.7003,0,1.55295
234.547,15.093,0,1.54381
234.554,15.4831,0,1.53097
234.565,15.8731,0,1.51621
234.58,16.2503,0,1.49949
234.601,16.6273,0,1.47936
234.629,17.0039,0,1.45728
234.661,17.3548,0,1.43286
234.698,17.6925,0,1.40389
234.74,18.0043,0,1.36314
234.798,18.3392,0,1.31896
234.866,18.6594,0,1.26883
234.945,18.959,0,1.21692
235.047,19.283,0,1.15334
235.164,19.5889,0,1.08829
235.293,19.8756,0,1.02524
235.446,20.1646,0,0.958317
235.619,20.4424,0,0.889811
235.81,20.7082,0,0.828042
236.027,20.9699,0,0.759609
236.277,21.2351,0,0.702425
236.535,21.4759,0,0.634696
236.817,21.707,0,0.570759
237.126,21.9135,0,0.503671
237.468,22.1258,0,0.440465
237.812,22.3083,0,0.372383
238.18,22.4719,0,0.30205
238.571,22.612,0,0.242329
238.97,22.7267,0,0.187908
239.4,22.8245,0,0.140251
239.822,22.8959,0,0.0960166
240.259,22.9474,0,0.0590999
240.711,22.9815,0,0.0358207
241.138,23.0005,0,0.0189802
241.593,23.0156,0,0.00750208
242.034,23.0201,0,0.00280659
242.487,23.0214,0,0.000881656
242.94,23.0215,0,0.001901
243.393,23.0211,0,0.00504848
243.833,23.0205,0,0.0122671
244.274,23.0213,0,0.0286991
244.714,23.0259,0,0.0540827
245.13,23.0385,0,0.089192
245.557,23.0644,0,0.130654
245.945,23.1018,0,0.178446
246.344,23.1604,0,0.232767
246.727,23.2347,0,0.288043
247.105,23.3303,0,0.346077
247.442,23.435,0,0.401068
247.784,23.5615,0,0.456587
248.107,23.7018,0,0.513257
248.4,23.8477,0,0.565736
248.685,24.0081,0,0.621417
248.951,24.177,0,0.674943
249.217,24.3672,0,0.738472
249.471,24.5737,0,0.799673
249.725,24.8065,0,0.865189
249.951,25.0431,0,0.925187
250.17,25.3029,0,0.986315
250.364,25.5661,0,1.05043
250.55,25.8509,0,1.10864
250.71,26.1359,0,1.16651
250.864,26.453,0,1.22746
251.011,26.8141,0,1.28394
251.121,27.1359,0,1.33062
251.224,27.499,0,1.37354
251.314,27.8914,0,1.41234
251.382,28.292,0,1.4463
251.441,28.7032,0,1.47034
251.489,29.1284,0,1.48889
251.528,29.5672,0,1.50125
251.561,30.019,0,1.50879
251.59,30.4712,0,1.51449
251.617,30.9361,0,1.51724
251.642,31.4011,0,1.52019
251.666,31.8662,0,1.52148
251.688,32.3188,0,1.52289
251.711,32.7839,0,1.52321
251.728,33.2219,0,1.52359
251.751,33.6996,0,1.52434
251.773,34.1773,0,1.52422
251.795,34.6551,0,1.52448
251.818,35.1328,0,1.52463
251.839,35.598,0,1.52574
251.861,36.0758,0,1.52579
251.883,36.5661,0,1.52659
251.904,37.0439,0,1.52744
251.925,37.5343,0,1.52753
251.946,38.0247,0,1.52782
251.967,38.5018,0,1.52829
251.988,38.9922,0,1.52874
252.008,39.47,0,1.5296
252.029,39.973,0,1.52999
252.049,40.4635,0,1.53098
252.068,40.9539,0,1.53195
252.088,41.4444,0,1.53309
252.106,41.9223,0,1.53527
252.124,42.4129,0,1.53679
252.141,42.9034,0,1.53908
252.157,43.4066,0,1.54143
252.171,43.8803,0,1.54367
252.185,44.3709,0,1.54631
252.197,44.8491,0,1.54855
252.208,45.3272,0,1.55086
252.218,45.818,0,1.55371
252.227,46.2836,0,1.55589
252.234,46.7618,0,1.55814
252.241,47.2274,0,1.56165
252.247,47.693,0,1.56732
252.251,48.1461,0,1.57729
252.252,48.5992,0,1.58963
252.248,49.0405,0,1.60692
252.238,49.4934,0,1.62905
252.22,49.9336,0,1.65486
252.193,50.3732,0,1.68572
252.154,50.7994,0,1.72477
252.104,51.199,0,1.76667
252.036,51.6087,0,1.81614
251.953,52.0027,0,1.87198
251.85,52.3922,0,1.92709
251.735,52.7517,0,1.99253
251.598,53.1034,0,2.05305
251.444,53.4417,0,2.11574
251.271,53.7631,0,2.17965
251.085,54.062,0,2.24842
250.872,54.3585,0,2.3097
250.649,54.631,0,2.37427
250.417,54.8792,0,2.44005
250.151,55.1288,0,2.5031
249.878,55.3527,0,2.56687
249.561,55.5799,0,2.62753
249.252,55.7736,0,2.68882
248.898,55.9646,0,2.74612
248.54,56.1224,0,2.79919
248.165,56.2691,0,2.85246
247.771,56.4011,0,2.88919
247.348,56.5212,0,2.93502
246.919,56.6232,0,2.97353
246.474,56.7088,0,3.0164
246.014,56.7777,0,3.05134
245.551,56.8276,0,3.07616
245.061,56.8649,0,3.09453
244.571,56.8907,0,3.10756
244.068,56.9093,0,3.11567
243.592,56.9207,0,3.11955
243.101,56.9313,0,3.12361
242.799,56.937,0,3.1243
242.321,56.9449,0,3.1243
241.805,56.9531,0,3.12146
241.277,56.963,0,3.11722
240.748,56.9747,0,3.11417
240.17,56.9897,0,3.11055
239.679,57.0039,0,3.10769
239.151,57.021,0,3.10433
238.61,57.0401,0,3.10128
238.056,57.0616,0,3.09813
237.483,57.0854,0,3.09592
237.005,57.1071,0,3.09504
236.465,57.1322,0,3.09452
235.937,57.1567,0,3.09482
235.383,57.1826,0,3.09472
234.805,57.2099,0,3.09441
234.252,57.236,0,3.09462
233.774,57.2584,0,3.09487
233.234,57.2838,0,3.09626
232.706,57.308,0,3.09871
232.165,57.3316,0,3.10077
231.643,57.3533,0,3.10409
231.127,57.3733,0,3.10708
230.611,57.3917,0,3.1107
230.083,57.4091,0,3.11481
229.504,57.4253,0,3.11962
229.026,57.4365,0,3.12104
228.498,57.4474,0,3.123
227.969,57.4576,0,3.12426
227.441,57.467,0,3.12506
226.925,57.4756,0,3.12667
226.41,57.483,0,3.12764
225.881,57.4907,0,3.1287
225.353,57.4977,0,3.12976
224.837,57.504,0,3.13094
224.271,57.5105,0,3.13178
223.792,57.5154,0,3.13281
223.264,57.5202,0,3.13395
222.735,57.5245,0,3.13527
222.207,57.528,0,3.13563
221.678,57.5312,0,3.13657
221.162,57.5341,0,3.13693
220.646,57.5365,0,3.13749
220.118,57.539,0,3.13787
219.539,57.5413,0,3.13838
219.01,57.5434,0,3.13874
218.532,57.5448,0,3.1394
218.016,57.5459,0,3.14005
217.5,57.5468,0,3.13959
216.971,57.5477,0,3.13957
216.38,57.5488,0,3.1394
215.901,57.5497,0,3.13894
215.373,57.551,0,3.13831
214.848,57.5524,0,3.13763
214.307,57.5544,0,3.13679
213.728,57.5571,0,3.1358
213.249,57.5595,0,3.13565
212.721,57.5627,0,3.13475
212.205,57.5658,0,3.1344
211.689,57.5694,0,3.13411
211.185,57.573,0,3.13318
210.657,57.5771,0,3.13295
210.141,57.5814,0,3.1324
209.612,57.5861,0,3.13166
209.097,57.591,0,3.13135
208.518,57.5969,0,3.13051
208.052,57.6018,0,3.13024
207.524,57.6075,0,3.12993
206.995,57.6134,0,3.12971
206.391,57.6202,0,3.12972
205.862,57.6265,0,3.12918
205.397,57.6321,0,3.12871
204.881,57.6385,0,3.12865
204.34,57.6456,0,3.12769
203.811,57.6527,0,3.12695
203.27,57.6605,0,3.1266
202.74,57.6685,0,3.12683
202.211,57.6762,0,3.12726
201.67,57.6838,0,3.12806
201.141,57.691,0,3.12814
200.6,57.6982,0,3.1289
200.059,57.705,0,3.12917
199.531,57.7117,0,3.12953
198.989,57.7182,0,3.12996
198.461,57.7243,0,3.13055
197.92,57.7303,0,3.13087
197.379,57.7359,0,3.13177
196.841,57.7409,0,3.13199
196.3,57.7461,0,3.13249
195.746,57.7512,0,3.13237
195.167,57.7563,0,3.13325
194.664,57.7606,0,3.1336
194.135,57.7647,0,3.13417
193.594,57.7685,0,3.13476
193.003,57.7724,0,3.13579
192.474,57.7755,0,3.13611
191.958,57.7783,0,3.13616
191.442,57.7807,0,3.13703
190.938,57.7831,0,3.13703
190.41,57.7852,0,3.13784
189.805,57.7874,0,3.13897
189.327,57.7889,0,3.13872
188.786,57.7903,0,3.13966
188.257,57.7915,0,3.14022
187.716,57.7922,0,3.14058
187.137,57.7926,0,-3.14125
186.672,57.7927,0,-3.14132
