x, y, z, theta
144.677,15.0971,0,-0.0417991
145.03,15.0822,0,-0.0415539
145.367,15.0681,0,-0.04073
145.669,15.0557,0,-0.0401487
145.983,15.043,0,-0.0397056
146.335,15.0289,0,-0.0391228
146.687,15.015,0,-0.0382487
147.039,15.0015,0,-0.0373459
147.366,14.9892,0,-0.036639
147.685,14.9773,0,-0.0358305
147.987,14.9664,0,-0.0349685
148.289,14.9558,0,-0.0343066
148.641,14.9436,0,-0.0338415
148.993,14.9315,0,-0.0331756
149.333,14.9201,0,-0.0324531
149.66,14.9094,0,-0.0316717
149.967,14.8995,0,-0.0310445
150.269,14.8901,0,-0.0303062
150.571,14.8808,0,-0.0295606
150.873,14.8718,0,-0.0289502
151.238,14.8611,0,-0.0284457
151.539,14.8524,0,-0.0286418
151.841,14.8439,0,-0.0289078
152.193,14.8337,0,-0.0292272
152.545,14.8235,0,-0.0296919
152.899,14.8134,0,-0.0311871
153.201,14.8047,0,-0.0334738
153.566,14.7937,0,-0.0387812
153.918,14.7817,0,-0.0442549
154.257,14.7683,0,-0.0513558
154.634,14.751,0,-0.0589868
154.971,14.733,0,-0.0679705
155.335,14.7104,0,-0.0768801
155.712,14.6835,0,-0.0852762
156.088,14.6534,0,-0.0945214
156.452,14.6209,0,-0.103549
156.842,14.5826,0,-0.111971
157.23,14.5409,0,-0.120565
157.53,14.5054,0,-0.1247
157.892,14.4603,0,-0.127739
158.267,14.4123,0,-0.128854
158.653,14.362,0,-0.128583
159.036,14.3122,0,-0.127486
159.423,14.2624,0,-0.126103
159.81,14.2131,0,-0.124534
160.197,14.1645,0,-0.123035
160.559,14.1196,0,-0.121595
160.872,14.0812,0,-0.120212
161.212,14.04,0,-0.118717
161.55,13.9995,0,-0.117094
161.875,13.9609,0,-0.115316
162.187,13.9237,0,-0.112064
162.487,13.8888,0,-0.107608
162.787,13.8553,0,-0.103526
163.108,13.8209,0,-0.0987339
163.471,13.7838,0,-0.0935841
163.797,13.7522,0,-0.0887564
164.135,13.721,0,-0.0836775
164.536,13.6863,0,-0.0779276
164.837,13.6617,0,-0.073502
165.164,13.6366,0,-0.0686876
165.489,13.6134,0,-0.0642581
165.815,13.5912,0,-0.0596342
166.117,13.5721,0,-0.0551327
166.431,13.5536,0,-0.0505739
166.732,13.5373,0,-0.0464075
167.034,13.5222,0,-0.0420756
167.411,13.5052,0,-0.0366568
167.776,13.4907,0,-0.0314528
168.154,13.4781,0,-0.0261915
168.456,13.4696,0,-0.0235102
168.758,13.4625,0,-0.0216864
169.086,13.455,0,-0.020236
169.45,13.4476,0,-0.02008
169.815,13.4402,0,-0.0199106
170.18,13.4328,0,-0.0208061
170.52,13.4261,0,-0.0221374
170.872,13.4186,0,-0.0237845
171.25,13.4101,0,-0.0254538
171.594,13.4014,0,-0.0279982
171.947,13.3923,0,-0.0277782
172.299,13.3825,0,-0.0301597
172.639,13.3724,0,-0.0332027
172.978,13.3616,0,-0.0356745
173.318,13.3499,0,-0.0381716
173.645,13.3379,0,-0.0401315
173.972,13.3252,0,-0.0421637
174.372,13.3088,0,-0.0451493
174.674,13.2956,0,-0.0477784
175.001,13.2805,0,-0.0499789
175.302,13.2658,0,-0.0517271
175.692,13.2461,0,-0.053838
175.994,13.2302,0,-0.0555628
176.371,13.2096,0,-0.0578239
176.672,13.1926,0,-0.059689
177.06,13.1697,0,-0.0624649
177.374,13.1506,0,-0.0644709
177.701,13.13,0,-0.066725
178.04,13.1079,0,-0.0691631
178.354,13.0867,0,-0.0714213
178.668,13.0648,0,-0.073816
178.969,13.0431,0,-0.0760784
179.346,13.015,0,-0.0797487
179.71,12.9867,0,-0.0833166
180.095,12.9552,0,-0.0878242
180.396,12.9296,0,-0.0912802
180.734,12.8995,0,-0.0950479
181.06,12.8693,0,-0.0987839
181.398,12.8367,0,-0.102233
181.724,12.8042,0,-0.105713
182.074,12.7678,0,-0.10868
182.4,12.7327,0,-0.110687
182.718,12.697,0,-0.112078
183.056,12.6592,0,-0.112861
183.368,12.6237,0,-0.113107
183.694,12.5867,0,-0.112619
184.019,12.5499,0,-0.111762
184.344,12.5132,0,-0.110821
184.669,12.4768,0,-0.109471
184.969,12.4435,0,-0.108323
185.357,12.401,0,-0.106711
185.657,12.3687,0,-0.105502
186.033,12.3287,0,-0.104157
186.408,12.2892,0,-0.103034
186.771,12.2515,0,-0.101763
187.147,12.213,0,-0.100619
187.524,12.1747,0,-0.0994593
187.875,12.1395,0,-0.0985157
188.226,12.1046,0,-0.0975923
188.576,12.0701,0,-0.0967789
188.927,12.0358,0,-0.0960979
189.278,12.0017,0,-0.0952633
189.597,11.9713,0,-0.094137
189.948,11.9379,0,-0.0931828
190.286,11.9062,0,-0.0920486
190.637,11.8737,0,-0.0908052
191.013,11.8393,0,-0.0895728
191.389,11.8053,0,-0.0883009
191.69,11.7785,0,-0.0871714
192.077,11.7448,0,-0.0857439
192.466,11.7112,0,-0.0844301
192.767,11.6856,0,-0.0834728
193.143,11.654,0,-0.0819461
193.444,11.6292,0,-0.0807598
193.758,11.6036,0,-0.0796911
194.072,11.5784,0,-0.0785113
194.459,11.5478,0,-0.0771979
194.836,11.5186,0,-0.075895
195.175,11.4927,0,-0.0747415
195.488,11.469,0,-0.0737843
195.84,11.4429,0,-0.0727585
196.17,11.4185,0,-0.0719524
196.484,11.3957,0,-0.0709001
196.785,11.374,0,-0.0702561
197.091,11.3523,0,-0.0694196
197.43,11.3285,0,-0.0684677
197.757,11.3059,0,-0.0668398
198.083,11.2836,0,-0.0648536
198.445,11.2599,0,-0.0625338
198.747,11.2407,0,-0.0613416
199.061,11.2213,0,-0.0600533
199.4,11.2007,0,-0.0589604
199.739,11.1805,0,-0.0580613
200.113,11.1586,0,-0.0569831
200.49,11.1369,0,-0.0560906
200.791,11.1199,0,-0.0554895
201.168,11.099,0,-0.0552911
201.47,11.0823,0,-0.0557063
201.847,11.0612,0,-0.0560936
202.237,11.0394,0,-0.0564503
202.601,11.019,0,-0.0569996
202.978,10.9976,0,-0.0577415
203.367,10.9752,0,-0.05906
203.732,10.9538,0,-0.0598162
204.096,10.9321,0,-0.0608069
204.454,10.9106,0,-0.0615114
204.805,10.889,0,-0.0623296
205.17,10.8665,0,-0.063122
205.534,10.8435,0,-0.0635456
205.911,10.8196,0,-0.0637784
206.252,10.7979,0,-0.0635748
206.579,10.7772,0,-0.0635362
206.88,10.7581,0,-0.0634447
207.182,10.739,0,-0.0631369
207.491,10.7196,0,-0.0631202
207.805,10.6999,0,-0.0632267
208.106,10.6808,0,-0.0630698
208.47,10.6579,0,-0.0628959
208.846,10.6344,0,-0.0631873
209.172,10.6138,0,-0.0638436
209.474,10.5947,0,-0.0647219
209.788,10.5744,0,-0.0653801
210.127,10.5525,0,-0.0667507
210.453,10.5308,0,-0.0680994
210.792,10.5079,0,-0.0692628
211.102,10.4867,0,-0.0706885
211.428,10.4639,0,-0.0729308
211.78,10.4386,0,-0.0746726
212.119,10.4135,0,-0.07671
212.433,10.3897,0,-0.0779667
212.784,10.3624,0,-0.0782992
213.148,10.3338,0,-0.0780304
213.512,10.3052,0,-0.0778255
213.863,10.2777,0,-0.0773053
214.227,10.2495,0,-0.0773531
214.578,10.2223,0,-0.0772741
214.942,10.194,0,-0.0767871
215.281,10.1678,0,-0.0756881
215.632,10.1409,0,-0.0741616
215.984,10.1145,0,-0.0728924
216.328,10.0892,0,-0.0720867
216.692,10.0627,0,-0.0712838
217.056,10.0366,0,-0.070315
217.407,10.0117,0,-0.0694396
217.771,9.98624,0,-0.0686789
218.136,9.961,0,-0.0678428
218.5,9.93631,0,-0.0671297
218.863,9.91187,0,-0.0671337
219.214,9.88821,0,-0.0671094
219.591,9.86285,0,-0.0670196
219.943,9.83926,0,-0.0672023
220.307,9.81476,0,-0.0675883
220.671,9.79013,0,-0.0680272
221.035,9.76535,0,-0.0686532
221.38,9.7417,0,-0.0692054
221.719,9.71829,0,-0.0697414
222.07,9.69391,0,-0.0697115
222.422,9.66937,0,-0.0701776
222.773,9.64471,0,-0.070841
223.112,9.62079,0,-0.0711116
223.426,9.59848,0,-0.0712681
223.79,9.5726,0,-0.071542
224.122,9.54889,0,-0.0718156
224.474,9.52365,0,-0.0722775
224.8,9.50006,0,-0.0727001
225.115,9.47733,0,-0.0732213
225.416,9.45535,0,-0.0733176
225.736,9.43201,0,-0.0734666
226.062,9.40805,0,-0.0737312
226.389,9.38412,0,-0.0739805
226.752,9.35767,0,-0.0759261
227.091,9.3331,0,-0.0803688
227.48,9.30301,0,-0.0856094
227.781,9.27783,0,-0.0885966
228.195,9.24142,0,-0.0912693
228.521,9.21188,0,-0.0937825
228.834,9.18283,0,-0.0957414
229.142,9.15353,0,-0.0973058
229.53,9.11594,0,-0.0986857
229.906,9.07904,0,-0.100161
230.256,9.0441,0,-0.10171
230.607,9.00858,0,-0.102801
230.945,8.97382,0,-0.10302
231.258,8.94144,0,-0.10306
231.583,8.90762,0,-0.102154
231.884,8.87646,0,-0.100675
232.184,8.84573,0,-0.0991841
232.485,8.81552,0,-0.0975674
232.83,8.78143,0,-0.0954508
233.181,8.74756,0,-0.0934477
233.482,8.71902,0,-0.091871
233.783,8.69104,0,-0.0902919
234.083,8.66348,0,-0.0888728
234.397,8.63519,0,-0.0874607
234.723,8.60632,0,-0.08593
235.042,8.57849,0,-0.0845378
235.38,8.54959,0,-0.0831648
235.719,8.52109,0,-0.0818257
236.058,8.4931,0,-0.080597
236.396,8.46555,0,-0.0792353
236.723,8.43939,0,-0.0779779
237.049,8.41364,0,-0.0766486
237.382,8.38776,0,-0.0752895
237.709,8.36295,0,-0.0738373
238.035,8.33856,0,-0.0725275
238.349,8.31555,0,-0.0711884
238.663,8.29294,0,-0.070226
238.989,8.26984,0,-0.0691614
239.316,8.24704,0,-0.0683658
239.638,8.22473,0,-0.06826
239.965,8.20242,0,-0.0684662
240.291,8.18008,0,-0.0682732
240.605,8.15863,0,-0.0680892
240.907,8.13809,0,-0.0676001
241.208,8.11768,0,-0.0671774
241.509,8.09744,0,-0.0667965
241.881,8.07254,0,-0.0661193
242.258,8.04767,0,-0.0654466
242.635,8.02292,0,-0.0649624
242.999,7.99924,0,-0.0642994
243.351,7.97656,0,-0.0637709
243.703,7.95416,0,-0.0630159
244.03,7.93338,0,-0.0623829
244.369,7.91211,0,-0.0620514
244.696,7.89182,0,-0.0614327
244.997,7.87323,0,-0.0609694
245.324,7.85327,0,-0.0605543
245.625,7.83508,0,-0.0599632
245.927,7.81699,0,-0.0596103
246.279,7.79599,0,-0.0594053
246.63,7.77502,0,-0.0593668
246.97,7.75479,0,-0.0593469
247.282,7.73618,0,-0.0591789
247.597,7.71753,0,-0.0590198
247.911,7.69894,0,-0.058814
248.237,7.67966,0,-0.0588967
248.55,7.66119,0,-0.0589777
248.864,7.64255,0,-0.0591274
249.166,7.62463,0,-0.0591966
249.481,7.60605,0,-0.0589073
249.817,7.58621,0,-0.0586542
250.118,7.56848,0,-0.0585741
250.47,7.54782,0,-0.0581929
250.771,7.52997,0,-0.0571648
251.098,7.51022,0,-0.0529916
251.437,7.49002,0,-0.0453753
251.789,7.47073,0,-0.0319526
252.107,7.45605,0,-0.0144161
252.484,7.44382,0,0.0117821
252.786,7.44003,0,0.0382874
253.088,7.44247,0,0.0742887
253.428,7.4567,0,0.120541
253.737,7.48276,0,0.162718
254.074,7.5267,0,0.207569
254.446,7.59293,0,0.262804
254.826,7.68027,0,0.332112
255.139,7.77325,0,0.394194
255.471,7.89355,0,0.460566
255.78,8.03494,0,0.524088
256.104,8.2027,0,0.599831
256.394,8.37973,0,0.675698
256.689,8.5936,0,0.756581
256.948,8.814,0,0.829717
257.19,9.05267,0,0.898553
257.397,9.28873,0,0.964127
257.589,9.53845,0,1.02081
257.756,9.79144,0,1.06896
257.91,10.0507,0,1.10974
258.082,10.373,0,1.1645
258.247,10.7265,0,1.21542
258.383,11.0648,0,1.26615
258.496,11.3857,0,1.31135
258.583,11.6818,0,1.34866
258.658,11.9745,0,1.37809
258.722,12.2695,0,1.40592
258.784,12.6037,0,1.43206
258.843,12.9894,0,1.45377
258.892,13.3778,0,1.46926
258.931,13.7408,0,1.47836
258.966,14.1167,0,1.48323
258.997,14.4677,0,1.48589
259.028,14.8314,0,1.48699
259.059,15.1951,0,1.48779
259.088,15.5454,0,1.48868
259.116,15.8966,0,1.48941
259.144,16.2354,0,1.49039
259.17,16.5615,0,1.49105
259.194,16.8626,0,1.49162
259.221,17.1942,0,1.49227
259.245,17.4953,0,1.49286
259.27,17.8257,0,1.49369
259.296,18.152,0,1.49388
259.323,18.5033,0,1.49604
259.353,18.8834,0,1.50073
259.376,19.1846,0,1.50678
259.401,19.5235,0,1.51814
259.422,19.8374,0,1.53574
259.442,20.1892,0,1.56295
259.452,20.4911,0,1.5934
259.454,20.8058,0,1.62758
259.44,21.2003,0,1.67438
259.412,21.5768,0,1.72386
259.367,21.9517,0,1.78619
259.313,22.2617,0,1.85004
259.24,22.5676,0,1.91084
259.146,22.8731,0,1.97042
259.033,23.1802,0,2.03087
258.907,23.4684,0,2.10347
258.755,23.7584,0,2.1743
258.576,24.0469,0,2.25294
258.367,24.3307,0,2.3294
258.14,24.5934,0,2.40384
257.872,24.859,0,2.48393
257.612,25.0783,0,2.56666
257.316,25.2919,0,2.63615
256.994,25.4876,0,2.70846
256.655,25.661,0,2.76775
256.319,25.8038,0,2.81283
255.964,25.9329,0,2.84919
255.605,26.0487,0,2.87842
255.278,26.1429,0,2.91181
254.924,26.2325,0,2.93614
254.591,26.3053,0,2.95932
254.257,26.3718,0,2.97793
253.951,26.4278,0,2.99432
253.64,26.4779,0,3.00863
253.321,26.5244,0,3.0229
253.009,26.5647,0,3.0347
252.695,26.5994,0,3.0437
252.394,26.629,0,3.04576
252.068,26.6601,0,3.04583
251.716,26.6938,0,3.0445
251.366,26.7276,0,3.04183
251.053,26.7584,0,3.03978
250.754,26.7885,0,3.03776
250.453,26.8193,0,3.03565
250.141,26.852,0,3.03316
249.815,26.8868,0,3.03036
249.489,26.923,0,3.02867
249.176,26.9585,0,3.02785
248.876,26.9928,0,3.02838
248.551,27.0303,0,3.03016
248.213,27.0701,0,3.03691
247.873,27.1097,0,3.05055
247.56,27.1436,0,3.07395
247.247,27.1718,0,3.09994
246.945,27.1918,0,3.12676
246.606,27.2045,0,-3.12201
246.281,27.2061,0,-3.0896
245.941,27.1952,0,-3.05626
245.64,27.1743,0,-3.0362
245.289,27.1399,0,-3.02458
244.927,27.0969,0,-3.02091
244.547,27.0494,0,-3.0234
244.247,27.0124,0,-3.02852
243.935,26.9736,0,-3.03876
243.622,26.9365,0,-3.0571
243.309,26.9033,0,-3.0809
243.008,26.878,0,-3.10905
242.694,26.8596,0,-3.1412
242.372,26.8509,0,3.10473
241.982,26.8558,0,3.05841
241.592,26.8785,0,3.01644
241.217,26.918,0,2.97639
240.918,26.9616,0,2.95358
240.559,27.0258,0,2.93133
240.224,27.0943,0,2.92022
239.917,27.163,0,2.91609
239.574,27.242,0,2.9157
239.243,27.3201,0,2.92217
238.933,27.394,0,2.93671
238.614,27.4687,0,2.96599
238.308,27.5343,0,3.01022
237.998,27.5867,0,3.05917
237.686,27.6245,0,3.10489
237.386,27.6468,0,-3.13092
237.084,27.6539,0,-3.09151
236.782,27.6444,0,-3.0668
236.441,27.6224,0,-3.0491
236.102,27.5931,0,-3.03848
235.777,27.5595,0,-3.03511
235.435,27.5214,0,-3.03684
235.072,27.4801,0,-3.04734
234.772,27.448,0,-3.06076
234.458,27.418,0,-3.07709
234.107,27.3896,0,-3.09752
233.787,27.371,0,-3.11899
233.447,27.3578,0,-3.1399
233.107,27.3517,0,3.1221
232.78,27.3527,0,3.10159
232.453,27.3604,0,3.08103
232.139,27.3742,0,3.06189
231.775,27.3985,0,3.03836
231.449,27.4272,0,3.01818
231.137,27.4615,0,3.00275
230.825,27.5014,0,2.98776
230.514,27.5464,0,2.97475
230.179,27.6004,0,2.96461
229.857,27.6564,0,2.9569
229.56,27.7107,0,2.95152
229.263,27.767,0,2.94809
228.917,27.8346,0,2.94654
228.588,27.8996,0,2.94657
228.255,27.9659,0,2.9478
227.922,28.032,0,2.95043
227.588,28.0977,0,2.95464
227.257,28.162,0,2.96067
226.935,28.2227,0,2.9675
226.601,28.2837,0,2.97546
226.291,28.3389,0,2.98736
225.969,28.3927,0,3.00144
225.658,28.4401,0,3.01468
225.346,28.4818,0,3.02301
225.046,28.5194,0,3.03101
224.695,28.563,0,3.04628
224.395,28.5974,0,3.06688
224.069,28.628,0,3.09108
223.755,28.6498,0,3.11564
223.416,28.6632,0,3.13562
223.098,28.6678,0,-3.13346
222.745,28.6669,0,-3.12259
222.393,28.6605,0,-3.11783
222.028,28.6516,0,-3.11663
221.663,28.6418,0,-3.119
221.286,28.6315,0,-3.12497
220.903,28.6218,0,-3.13597
220.538,28.6156,0,3.13141
220.186,28.6143,0,3.11226
219.846,28.6192,0,3.09267
219.532,28.6296,0,3.07357
219.23,28.6453,0,3.05507
218.931,28.6666,0,3.03904
218.567,28.6998,0,3.01976
218.23,28.7383,0,3.00628
217.88,28.7841,0,2.99745
217.548,28.8322,0,2.99359
217.224,28.8808,0,2.99406
216.876,28.9331,0,2.99622
216.577,28.9775,0,2.99817
216.278,29.0212,0,3.00038
215.961,29.0667,0,3.00294
215.649,29.1109,0,3.00619
215.337,29.1543,0,3.01002
215.038,29.1948,0,3.01363
214.706,29.2391,0,3.02232
214.394,29.2798,0,3.03397
214.057,29.3196,0,3.04667
213.728,29.3537,0,3.05993
213.365,29.3867,0,3.07424
213.051,29.4103,0,3.08541
212.724,29.4305,0,3.09398
212.404,29.4466,0,3.10044
212.102,29.4593,0,3.10343
211.801,29.4709,0,3.10433
211.499,29.4822,0,3.10467
211.197,29.4933,0,3.10499
210.856,29.5059,0,3.10542
210.529,29.5178,0,3.10589
210.201,29.5296,0,3.10617
209.849,29.542,0,3.10681
209.516,29.5537,0,3.10698
209.177,29.5655,0,3.10721
208.837,29.5772,0,3.10778
208.485,29.5891,0,3.10839
208.177,29.5993,0,3.10861
207.837,29.6103,0,3.10791
207.485,29.6218,0,3.10633
207.107,29.6348,0,3.10433
206.718,29.6491,0,3.10238
206.328,29.6638,0,3.09949
205.93,29.6797,0,3.09622
205.628,29.6927,0,3.09335
205.314,29.7072,0,3.09058
205.012,29.7219,0,3.08772
204.71,29.7375,0,3.08485
204.321,29.7589,0,3.08128
204.019,29.7764,0,3.07878
203.636,29.8,0,3.07593
203.26,29.8241,0,3.07339
202.895,29.8484,0,3.0707
202.531,29.8737,0,3.06747
202.18,29.8992,0,3.06452
201.826,29.926,0,3.06248
201.487,29.9528,0,3.06189
201.136,29.9808,0,3.06195
200.81,30.007,0,3.0619
200.484,30.0332,0,3.06271
200.144,30.0602,0,3.06369
199.805,30.0868,0,3.0649
199.453,30.1139,0,3.06631
199.127,30.1386,0,3.06779
198.78,30.1645,0,3.06918
198.479,30.1866,0,3.07031
198.115,30.2127,0,3.07164
197.814,30.234,0,3.07285
197.512,30.255,0,3.07397
197.186,30.2773,0,3.0751
196.865,30.299,0,3.07613
196.501,30.323,0,3.07727
196.199,30.3426,0,3.07776
195.898,30.362,0,3.07837
195.571,30.3827,0,3.0793
195.245,30.4032,0,3.0799
194.927,30.4229,0,3.08051
194.575,30.4446,0,3.08125
194.224,30.4659,0,3.08165
193.884,30.4862,0,3.08168
193.533,30.5073,0,3.08155
193.181,30.5285,0,3.08159
192.829,30.5496,0,3.08157
192.502,30.5692,0,3.08159
192.182,30.5884,0,3.0818
191.856,30.6081,0,3.0814
191.517,30.6286,0,3.08112
191.14,30.6516,0,3.08058
190.763,30.6745,0,3.08035
190.398,30.6969,0,3.08013
190.034,30.7193,0,3.07988
189.681,30.7408,0,3.0801
189.329,30.7623,0,3.08022
189.002,30.7825,0,3.08001
188.676,30.8027,0,3.07949
188.299,30.8261,0,3.07929
187.935,30.8489,0,3.07786
187.583,30.8712,0,3.0768
187.237,30.8934,0,3.07491
186.911,30.915,0,3.07316
186.584,30.937,0,3.0713
186.27,30.9586,0,3.06873
185.894,30.9856,0,3.06628
185.542,31.0121,0,3.06555
185.229,31.0361,0,3.06574
184.9,31.0613,0,3.06665
184.599,31.0847,0,3.06915
184.273,31.1105,0,3.07561
183.972,31.1333,0,3.08567
183.655,31.1534,0,3.09595
183.353,31.1677,0,3.10161
183.026,31.1804,0,3.10146
182.724,31.1914,0,3.09808
182.4,31.2014,0,3.08398
182.048,31.2146,0,3.05851
181.746,31.2321,0,3.02986
181.395,31.2633,0,2.99682
181.056,31.3027,0,2.95335
180.733,31.3504,0,2.90078
180.387,31.4193,0,2.82811
180.096,31.4984,0,2.75895
179.77,31.6139,0,2.68093
179.47,31.7443,0,2.60913
179.148,31.9151,0,2.53
178.84,32.1116,0,2.44545
178.545,32.3375,0,2.3576
178.303,32.5569,0,2.28368
178.068,32.8024,0,2.20908
177.838,33.0854,0,2.12681
177.624,33.3968,0,2.04824
177.447,33.7096,0,1.95999
177.294,34.0405,0,1.87748
177.171,34.3708,0,1.80046
177.084,34.673,0,1.72842
177.008,35.0429,0,1.64667
176.969,35.3582,0,1.57631
176.954,35.6976,0,1.52225
176.963,36.0624,0,1.48495
176.99,36.4264,0,1.46289
177.022,36.7395,0,1.45245
177.06,37.0644,0,1.44799
177.103,37.4082,0,1.4462
177.146,37.7578,0,1.44524
177.195,38.1449,0,1.44523
177.246,38.5445,0,1.44518
177.296,38.9441,0,1.44544
177.346,39.3436,0,1.44521
177.398,39.7557,0,1.44417
177.445,40.1338,0,1.43919
177.492,40.5085,0,1.42969
177.539,40.8704,0,1.41489
177.594,41.2567,0,1.38898
177.66,41.6668,0,1.35428
177.741,42.0869,0,1.3105
177.84,42.5033,0,1.25413
177.959,42.914,0,1.18813
178.098,43.3001,0,1.11185
178.25,43.6457,0,1.03653
178.428,43.9788,0,0.952492
178.638,44.3077,0,0.87057
178.866,44.608,0,0.792556
179.119,44.8879,0,0.70556
179.404,45.1545,0,0.625664
179.687,45.3737,0,0.535497
180.002,45.582,0,0.451388
180.322,45.7567,0,0.368625
180.644,45.9006,0,0.288625
180.976,46.0184,0,0.211724
181.317,46.1084,0,0.131713
181.651,46.1711,0,0.0644563
182.025,46.2109,0,-0.010746
182.415,46.2217,0,-0.0756218
182.805,46.2028,0,-0.126355
183.243,46.1576,0,-0.147208
183.668,46.1031,0,-0.142918
184.104,46.046,0,-0.117256
184.53,45.9975,0,-0.0705611
184.969,45.9658,0,-0.00272853
185.354,45.9571,0,0.0734626
185.731,45.9736,0,0.156557
186.081,46.0128,0,0.239016
186.39,46.0717,0,0.316408
186.682,46.1501,0,0.381964
187.003,46.2622,0,0.450993
