x, y, z, theta
4.3477,-96.9223,0,-2.89203
3.99336,-97.0119,0,-2.88921
3.61138,-97.1096,0,-2.88648
3.30117,-97.1895,0,-2.88424
2.90774,-97.2921,0,-2.88135
2.46706,-97.4088,0,-2.8789
2.1457,-97.4948,0,-2.87711
1.77833,-97.594,0,-2.87593
1.39782,-97.6973,0,-2.87496
0.993642,-97.8074,0,-2.8741
0.589595,-97.918,0,-2.87335
0.138127,-98.042,0,-2.87266
-0.313242,-98.1664,0,-2.87242
-0.78832,-98.2975,0,-2.87206
-1.26337,-98.4287,0,-2.8721
-1.75031,-98.5631,0,-2.87202
-2.23721,-98.6976,0,-2.87163
-2.73599,-98.8354,0,-2.87184
-3.29056,-98.9889,0,-2.8714
-3.77741,-99.1236,0,-2.87121
-4.24048,-99.2519,0,-2.87063
-4.70348,-99.3804,0,-2.87032
-5.16637,-99.5093,0,-2.87039
-5.61729,-99.6353,0,-2.87204
-6.0683,-99.761,0,-2.87644
-6.50783,-99.882,0,-2.88438
-6.95993,-100.004,0,-2.89735
-7.4133,-100.121,0,-2.91558
-7.8444,-100.225,0,-2.94065
-8.38064,-100.347,0,-2.97132
-8.81634,-100.43,0,-3.0043
-9.24245,-100.496,0,-3.04917
-9.64613,-100.545,0,-3.09546
-10.0885,-100.577,0,3.12934
-10.4949,-100.584,0,3.07003
-10.9257,-100.565,0,2.99975
-11.3543,-100.519,0,2.92988
-11.7788,-100.443,0,2.86011
-12.2085,-100.334,0,2.79257
-12.6294,-100.194,0,2.72291
-13.1322,-100.032,0,2.64965
-13.5398,-99.8281,0,2.57309
-13.9204,-99.6006,0,2.49978
-14.2842,-99.347,0,2.42793
-14.6374,-99.0589,0,2.3546
-14.9603,-98.755,0,2.28598
-15.2682,-98.419,0,2.20802
-15.5585,-98.0518,0,2.1383
-15.833,-97.6426,0,2.0659
-16.0818,-97.2031,0,1.99898
-16.2994,-96.7473,0,1.93377
-16.566,-96.2064,0,1.88279
-16.7431,-95.6811,0,1.83719
-16.8985,-95.1233,0,1.79467
-17.034,-94.5476,0,1.76651
-17.1543,-93.9561,0,1.74946
-17.2629,-93.3622,0,1.74343
-17.3678,-92.7551,0,1.74475
-17.422,-92.4394,0,1.74744
-17.4772,-92.1239,0,1.75211
-17.5314,-91.8207,0,1.75714
-17.5917,-91.4935,0,1.76312
-17.6513,-91.1787,0,1.76846
-17.7126,-90.8643,0,1.7748
-17.7758,-90.5503,0,1.78118
-17.8411,-90.2366,0,1.78754
-17.9133,-89.8993,0,1.79192
-18.0079,-89.4645,0,1.79867
-18.0789,-89.1521,0,1.80473
-18.1547,-88.8282,0,1.80981
-18.2351,-88.4927,0,1.81366
-18.3111,-88.1815,0,1.81665
-18.3884,-87.8706,0,1.82025
-18.4699,-87.5481,0,1.82272
-18.5461,-87.2497,0,1.82369
-18.6259,-86.9394,0,1.82476
-18.7124,-86.6054,0,1.82626
-18.7931,-86.2954,0,1.8272
-18.8803,-85.9616,0,1.82796
-18.9615,-85.6518,0,1.82866
-19.0493,-85.3181,0,1.82955
-19.131,-85.0084,0,1.83032
-19.2192,-84.6749,0,1.83116
-19.3014,-84.3653,0,1.83216
-19.3871,-84.0439,0,1.83337
-19.4732,-83.7225,0,1.83416
-19.5594,-83.4012,0,1.8346
-19.646,-83.08,0,1.83581
-19.733,-82.7589,0,1.83694
-19.8488,-82.3167,0,1.83689
-19.9394,-81.9839,0,1.83667
-20.0302,-81.651,0,1.83709
-20.1211,-81.3183,0,1.8373
-20.2087,-80.9973,0,1.83702
-20.2995,-80.6645,0,1.83691
-20.3904,-80.3317,0,1.83722
-20.4877,-79.9751,0,1.83668
-20.5783,-79.6422,0,1.83621
-20.672,-79.2974,0,1.83623
-20.7658,-78.9527,0,1.83597
-20.8562,-78.6197,0,1.83532
-20.9496,-78.2748,0,1.83499
-21.0398,-77.9419,0,1.83514
-21.1364,-77.5851,0,1.8353
-21.2267,-77.2521,0,1.83523
-21.3234,-76.8954,0,1.83545
-21.4169,-76.5505,0,1.83557
-21.5105,-76.2057,0,1.83552
-21.6073,-75.8489,0,1.8356
-21.6976,-75.516,0,1.8356
-21.7944,-75.1593,0,1.83558
-21.9187,-74.7006,0,1.83543
-22.0121,-74.3557,0,1.83516
-22.1056,-74.0109,0,1.8352
-22.199,-73.666,0,1.83534
-22.2925,-73.3211,0,1.83516
-22.3889,-72.9643,0,1.83463
-22.4821,-72.6194,0,1.83474
-22.5786,-72.2626,0,1.83493
-22.6686,-71.9296,0,1.83497
-22.7652,-71.5728,0,1.83505
-22.8617,-71.216,0,1.83515
-22.9582,-70.8592,0,1.83511
-23.0547,-70.5024,0,1.83679
-23.1517,-70.1457,0,1.83913
-23.2491,-69.7891,0,1.84153
-23.3472,-69.4327,0,1.84373
-23.446,-69.0766,0,1.84655
-23.5459,-68.7207,0,1.8492
-23.6469,-68.3651,0,1.85258
-23.7489,-68.0098,0,1.85493
-23.8517,-67.6549,0,1.85743
-23.9589,-67.2883,0,1.85961
-24.1066,-66.777,0,1.86216
-24.2122,-66.4228,0,1.86428
-24.3258,-66.0453,0,1.86553
-24.4293,-65.7033,0,1.86641
-24.5368,-65.3496,0,1.86747
-24.6518,-64.9725,0,1.86757
-24.7598,-64.619,0,1.868
-24.8754,-64.2421,0,1.86889
-24.9911,-63.8652,0,1.86853
-25.103,-63.5,0,1.86835
-25.215,-63.1349,0,1.8687
-25.3309,-62.758,0,1.86911
-25.4431,-62.3929,0,1.86922
-25.5591,-62.0161,0,1.86949
-25.6788,-61.6275,0,1.86976
-25.7949,-61.2507,0,1.86974
-25.911,-60.874,0,1.86983
-26.0235,-60.509,0,1.86979
-26.1397,-60.1322,0,1.86972
-26.2521,-59.7672,0,1.86958
-26.3682,-59.3904,0,1.86953
-26.4842,-59.0136,0,1.86964
-26.6448,-58.4866,0,1.86943
-26.7608,-58.1098,0,1.8693
-26.8768,-57.733,0,1.86962
-26.9929,-57.3562,0,1.86964
-27.109,-56.9794,0,1.86982
-27.2288,-56.5908,0,1.87031
-27.3416,-56.2259,0,1.87047
-27.458,-55.8492,0,1.8705
-27.5744,-55.4725,0,1.87088
-27.6873,-55.1076,0,1.87103
-27.8001,-54.7428,0,1.8708
-27.9167,-54.3661,0,1.87107
-28.0297,-54.0013,0,1.87131
-28.139,-53.6482,0,1.87098
-28.2519,-53.2833,0,1.87123
-28.3649,-52.9185,0,1.87145
-28.4779,-52.5536,0,1.87122
-28.5909,-52.1888,0,1.87131
-28.7039,-51.8239,0,1.87145
-28.8169,-51.4591,0,1.87123
-28.9263,-51.106,0,1.87146
-29.0358,-50.753,0,1.87194
-29.1941,-50.2408,0,1.87211
-29.3073,-49.876,0,1.87195
-29.4169,-49.523,0,1.87209
-29.5265,-49.17,0,1.87216
-29.6363,-48.8171,0,1.87247
-29.7461,-48.4641,0,1.87282
-29.8523,-48.123,0,1.87283
-29.9585,-47.7818,0,1.87282
-30.0648,-47.4407,0,1.8731
-30.1749,-47.0878,0,1.87339
-30.285,-46.735,0,1.87362
-30.3952,-46.3822,0,1.87365
-30.4981,-46.0529,0,1.87381
-30.6084,-45.7001,0,1.87413
-30.7187,-45.3473,0,1.87416
-30.8217,-45.0181,0,1.87426
-30.9322,-44.6653,0,1.87458
-31.0427,-44.3126,0,1.87438
-31.1457,-43.9833,0,1.87432
-31.2525,-43.6424,0,1.87481
-31.3631,-43.2897,0,1.8748
-31.4737,-42.937,0,1.87477
-31.6299,-42.4396,0,1.87485
-31.7407,-42.0869,0,1.8744
-31.8441,-41.7578,0,1.87327
-31.9508,-41.4168,0,1.87183
-32.0535,-41.0875,0,1.87063
-32.1631,-40.7345,0,1.86914
-32.2648,-40.4048,0,1.8674
-32.3697,-40.0632,0,1.86619
-32.4705,-39.7333,0,1.86468
-32.5707,-39.4032,0,1.86305
-32.6705,-39.0729,0,1.8617
-32.7699,-38.7426,0,1.86049
-32.8688,-38.4121,0,1.85907
-32.9638,-38.0933,0,1.8576
-33.0582,-37.7743,0,1.85629
-33.1523,-37.4552,0,1.85491
-33.2459,-37.136,0,1.8534
-33.3391,-36.8166,0,1.85231
-33.4319,-36.4972,0,1.85111
-33.5209,-36.1895,0,1.85019
-33.6097,-35.8817,0,1.84883
-33.698,-35.5737,0,1.84778
-33.9157,-34.8236,0,1.84589
-33.9997,-34.5273,0,1.84433
-34.0832,-34.2308,0,1.84299
-34.2427,-33.6613,0,1.84086
-34.3975,-33.1033,0,1.83844
-34.5446,-32.5687,0,1.83646
-34.684,-32.0576,0,1.83456
-34.8163,-31.5701,0,1.83391
-34.9542,-31.0585,0,1.83309
-35.0885,-30.5588,0,1.83306
-35.2195,-30.0709,0,1.83341
-35.3505,-29.5831,0,1.83319
-35.446,-29.2298,0,1.8332
-35.5707,-28.7657,0,1.83353
-35.6987,-28.2898,0,1.83391
-35.8268,-27.8139,0,1.83401
-35.9485,-27.3619,0,1.83446
-36.0699,-26.9097,0,1.83746
-36.1954,-26.4458,0,1.84541
-36.3168,-26.0065,0,1.85564
-36.4356,-25.5919,0,1.86648
-36.5654,-25.1549,0,1.88051
-36.6929,-24.743,0,1.9002
-36.8563,-24.2281,0,1.92722
-36.9957,-23.8331,0,1.96147
-37.1421,-23.4538,0,1.99788
-37.2974,-23.0915,0,2.04999
-37.4779,-22.7135,0,2.09034
-37.6721,-22.3564,0,2.15216
-37.8972,-21.9886,0,2.20118
-38.1349,-21.6438,0,2.26578
-38.3996,-21.3034,0,2.33147
-38.6792,-20.9916,0,2.41977
-38.982,-20.7023,0,2.50912
-39.3183,-20.4326,0,2.60027
-39.5396,-20.2187,0,2.6441
-39.8993,-20.0042,0,2.73842
-40.2774,-19.8243,0,2.8215
-40.6583,-19.6822,0,2.89958
-41.0493,-19.5712,0,2.97155
-41.4352,-19.4907,0,3.03777
-41.8379,-19.435,0,3.09975
-42.2433,-19.4055,0,-3.12224
-42.6498,-19.4008,0,-3.07047
-43.0437,-19.4182,0,-3.02412
-43.4484,-19.4565,0,-2.97966
-43.9179,-19.4858,0,-2.9435
-44.3057,-19.5569,0,-2.91099
-44.6788,-19.6388,0,-2.88586
-45.0254,-19.7252,0,-2.86708
-45.3465,-19.8122,0,-2.85447
-45.7606,-19.9324,0,-2.84472
-46.1026,-20.036,0,-2.8401
-46.444,-20.1415,0,-2.8374
-46.7975,-20.2446,0,-2.83558
-47.103,-20.3412,0,-2.83461
-47.4317,-20.4457,0,-2.83595
-47.7607,-20.5495,0,-2.83586
-48.1091,-20.6591,0,-2.83576
-48.4185,-20.7567,0,-2.83545
-48.7126,-20.8586,0,-2.78566
-49.0098,-20.978,0,-2.73487
-49.3032,-21.114,0,-2.67961
-49.5859,-21.2645,0,-2.62544
-49.8703,-21.4371,0,-2.56831
-50.1278,-21.61,0,-2.51886
-50.3825,-21.8043,0,-2.4619
