x, y, z, theta
22.5728,-35.1162,0,-1.64999
22.5479,-35.4298,0,-1.65021
22.522,-35.756,0,-1.65024
22.4941,-36.1061,0,-1.65017
22.4622,-36.5076,0,-1.65039
22.4311,-36.8965,0,-1.64977
22.3974,-37.3231,0,-1.64881
22.3738,-37.6242,0,-1.64818
22.3505,-37.9254,0,-1.64756
22.3273,-38.2266,0,-1.64644
22.3026,-38.5529,0,-1.64575
22.2781,-38.8792,0,-1.64631
22.2533,-39.2065,0,-1.64656
22.2286,-39.5328,0,-1.64644
22.2019,-39.8842,0,-1.6466
22.1762,-40.223,0,-1.64691
22.1484,-40.587,0,-1.64701
22.1197,-40.9635,0,-1.64711
22.0909,-41.3399,0,-1.64729
22.0601,-41.7415,0,-1.64723
22.0294,-42.1431,0,-1.64701
21.9968,-42.5698,0,-1.64709
21.9651,-42.9839,0,-1.64728
21.9346,-43.382,0,-1.64711
21.902,-43.8087,0,-1.64701
21.8704,-44.2229,0,-1.64689
21.8388,-44.637,0,-1.64715
21.8062,-45.0637,0,-1.64704
21.7736,-45.4904,0,-1.64661
21.7411,-45.9171,0,-1.64607
21.709,-46.3438,0,-1.64562
21.677,-46.7705,0,-1.64524
21.647,-47.1721,0,-1.64485
21.6154,-47.5989,0,-1.64389
21.5854,-48.0082,0,-1.64389
21.5541,-48.435,0,-1.64363
21.523,-48.8618,0,-1.6434
21.4929,-49.276,0,-1.64301
21.4629,-49.6903,0,-1.64276
21.4321,-50.1171,0,-1.64256
21.4015,-50.5439,0,-1.6424
21.3708,-50.9707,0,-1.64223
21.3403,-51.3976,0,-1.64177
21.3108,-51.8119,0,-1.64143
21.2806,-52.2387,0,-1.64129
21.2525,-52.637,0,-1.64114
21.2224,-53.0639,0,-1.64087
21.1934,-53.4782,0,-1.64036
21.1636,-53.9051,0,-1.64006
21.134,-54.332,0,-1.63994
21.1044,-54.7589,0,-1.63982
21.0758,-55.1733,0,-1.63949
21.0473,-55.5876,0,-1.63934
21.0188,-56.002,0,-1.63899
20.9897,-56.4289,0,-1.63858
20.9607,-56.8558,0,-1.63775
20.9328,-57.2722,0,-1.63824
20.9039,-57.6991,0,-1.63793
20.8752,-58.1261,0,-1.63756
20.8467,-58.553,0,-1.63734
20.8182,-58.98,0,-1.63722
20.7898,-59.407,0,-1.63685
20.7624,-59.8214,0,-1.63684
20.7333,-60.261,0,-1.63648
20.7053,-60.688,0,-1.63629
20.6773,-61.115,0,-1.63598
20.6494,-61.542,0,-1.63494
20.6224,-61.9616,0,-1.63555
20.5955,-62.3761,0,-1.63522
20.568,-62.8031,0,-1.63471
20.5407,-63.2301,0,-1.63431
20.5135,-63.6572,0,-1.63459
20.4854,-64.0968,0,-1.63501
20.4572,-64.5364,0,-1.63531
20.4288,-64.976,0,-1.63522
20.4012,-65.403,0,-1.6355
20.3719,-65.8552,0,-1.63566
20.3434,-66.2948,0,-1.63513
20.3152,-66.7318,0,-1.63569
20.2858,-67.1839,0,-1.63596
20.2563,-67.6361,0,-1.63591
20.2268,-68.0882,0,-1.63665
20.197,-68.5403,0,-1.637
20.1679,-68.9799,0,-1.63731
20.1361,-69.4571,0,-1.63752
20.1059,-69.9092,0,-1.6376
20.074,-70.3864,0,-1.63766
20.0428,-70.851,0,-1.63781
20.0117,-71.3156,0,-1.638
19.9798,-71.789,0,-1.63886
19.9481,-72.2536,0,-1.63958
19.9161,-72.7182,0,-1.63988
19.8822,-73.2079,0,-1.64027
19.849,-73.685,0,-1.6402
19.8159,-74.1621,0,-1.64034
19.7818,-74.6517,0,-1.64045
19.7485,-75.1288,0,-1.64064
19.7151,-75.6059,0,-1.64081
19.6808,-76.0956,0,-1.64104
19.6472,-76.5727,0,-1.64036
19.614,-77.0492,0,-1.63956
19.5811,-77.5263,0,-1.63906
19.5485,-78.0034,0,-1.63852
19.5161,-78.4805,0,-1.63792
19.4849,-78.9452,0,-1.6376
19.4538,-79.4098,0,-1.63703
19.4222,-79.887,0,-1.63667
19.3907,-80.3643,0,-1.63691
19.3599,-80.8289,0,-1.63746
19.3281,-81.3061,0,-1.6384
19.2966,-81.7708,0,-1.63909
19.2644,-82.2417,0,-1.63944
19.2299,-82.744,0,-1.6401
19.1967,-83.2211,0,-1.64105
19.1623,-83.7107,0,-1.64207
19.1264,-84.2129,0,-1.64189
19.0907,-84.7151,0,-1.64162
19.0568,-85.1921,0,-1.63971
19.0222,-85.6944,0,-1.63526
18.9897,-86.1968,0,-1.62664
18.9609,-86.712,0,-1.61642
18.938,-87.2149,0,-1.60479
18.921,-87.7143,0,-1.59196
18.9106,-88.205,0,-1.57703
18.9075,-88.7084,0,-1.5619
18.9119,-89.2119,0,-1.54713
18.9236,-89.7026,0,-1.53175
18.9437,-90.2182,0,-1.51554
18.9708,-90.7083,0,-1.50106
19.0059,-91.2105,0,-1.48905
19.0449,-91.6872,0,-1.47839
19.0914,-92.1885,0,-1.4725
19.1383,-92.6645,0,-1.46236
19.1897,-93.136,0,-1.46748
19.2403,-93.6242,0,-1.46667
19.2887,-94.0874,0,-1.46705
19.3369,-94.5506,0,-1.46859
19.3857,-95.0263,0,-1.47208
19.4316,-95.4898,0,-1.47718
19.4751,-95.9534,0,-1.48386
19.5156,-96.4173,0,-1.49107
19.5517,-96.869,0,-1.49872
19.5852,-97.3335,0,-1.50864
19.6126,-97.7731,0,-1.5239
19.6331,-98.2107,0,-1.53367
19.6494,-98.6509,0,-1.54589
19.6607,-99.1038,0,-1.55746
19.6666,-99.5443,0,-1.56713
19.6683,-100.01,0,-1.57679
19.6657,-100.45,0,-1.58593
19.659,-100.891,0,-1.59511
19.6477,-101.356,0,-1.60184
19.6336,-101.809,0,-1.60873
19.616,-102.275,0,-1.61569
19.5951,-102.74,0,-1.62147
19.5711,-103.212,0,-1.62777
19.5446,-103.677,0,-1.63274
19.515,-104.154,0,-1.63745
19.484,-104.619,0,-1.64017
19.4508,-105.096,0,-1.64114
19.4163,-105.586,0,-1.64167
19.3825,-106.063,0,-1.64204
19.3466,-106.565,0,-1.64276
19.3122,-107.042,0,-1.64335
19.2767,-107.531,0,-1.64385
19.2408,-108.021,0,-1.64325
19.2047,-108.519,0,-1.64451
19.1685,-109.009,0,-1.64429
19.1325,-109.498,0,-1.64438
19.0955,-110,0,-1.64386
19.0596,-110.49,0,-1.64264
19.0253,-110.967,0,-1.64168
18.9914,-111.444,0,-1.64081
18.958,-111.921,0,-1.64006
18.9249,-112.398,0,-1.639
18.8923,-112.875,0,-1.63815
18.8601,-113.353,0,-1.63669
18.8312,-113.79,0,-1.63616
18.8,-114.268,0,-1.636
18.7696,-114.732,0,-1.63537
18.7396,-115.197,0,-1.63462
18.7091,-115.674,0,-1.6342
18.6788,-116.152,0,-1.6339
18.6494,-116.616,0,-1.63351
18.621,-117.068,0,-1.63244
18.5915,-117.546,0,-1.63183
18.5624,-118.023,0,-1.63147
18.5334,-118.501,0,-1.63166
18.5038,-118.987,0,-1.63214
18.4744,-119.464,0,-1.63269
18.4456,-119.929,0,-1.63334
18.4149,-120.419,0,-1.63375
18.3841,-120.909,0,-1.63448
18.3528,-121.398,0,-1.63507
18.3205,-121.901,0,-1.63574
18.2886,-122.391,0,-1.63649
18.2564,-122.88,0,-1.6373
18.2238,-123.37,0,-1.63814
18.1899,-123.873,0,-1.63937
18.155,-124.38,0,-1.63988
18.1203,-124.883,0,-1.6406
18.0852,-125.385,0,-1.64122
18.0506,-125.874,0,-1.64245
18.0155,-126.364,0,-1.64298
17.9792,-126.866,0,-1.64386
17.9415,-127.381,0,-1.6445
17.9044,-127.883,0,-1.64531
17.867,-128.385,0,-1.64597
17.8292,-128.887,0,-1.64651
17.7911,-129.389,0,-1.64785
17.754,-129.869,0,-1.64804
17.7142,-130.384,0,-1.64876
17.675,-130.886,0,-1.64967
17.6353,-131.387,0,-1.65081
17.5951,-131.889,0,-1.6515
17.5545,-132.391,0,-1.65226
17.5145,-132.88,0,-1.65341
17.473,-133.382,0,-1.65469
17.4297,-133.896,0,-1.65574
17.387,-134.398,0,-1.65679
17.3438,-134.899,0,-1.65796
17.2999,-135.402,0,-1.65882
17.2556,-135.904,0,-1.65927
17.2111,-136.405,0,-1.65962
17.1665,-136.906,0,-1.6596
17.1218,-137.408,0,-1.65968
17.0749,-137.934,0,-1.65964
17.0302,-138.436,0,-1.66068
16.9839,-138.95,0,-1.66419
16.937,-139.451,0,-1.67083
16.8854,-139.964,0,-1.68068
16.8288,-140.477,0,-1.69754
16.767,-140.963,0,-1.71548
16.6926,-141.473,0,-1.73326
16.6111,-141.97,0,-1.75387
16.5195,-142.465,0,-1.77395
16.4205,-142.946,0,-1.7906
16.308,-143.45,0,-1.80602
16.1936,-143.927,0,-1.82161
16.0717,-144.402,0,-1.83406
15.9375,-144.901,0,-1.8407
15.8032,-145.386,0,-1.84303
15.6712,-145.859,0,-1.84582
15.5368,-146.335,0,-1.84398
15.401,-146.82,0,-1.84319
15.2656,-147.305,0,-1.84054
15.1314,-147.79,0,-1.83361
15.0006,-148.276,0,-1.82352
14.8779,-148.751,0,-1.81003
14.7556,-149.253,0,-1.7959
14.646,-149.731,0,-1.7801
14.5414,-150.224,0,-1.76457
14.4445,-150.718,0,-1.74814
14.3557,-151.213,0,-1.72948
14.2767,-151.707,0,-1.71717
14.2051,-152.192,0,-1.70316
14.1387,-152.691,0,-1.68967
14.079,-153.191,0,-1.67913
14.0245,-153.692,0,-1.67288
13.9732,-154.193,0,-1.66892
13.9227,-154.706,0,-1.66712
13.8755,-155.195,0,-1.66619
13.8263,-155.708,0,-1.66518
13.7777,-156.222,0,-1.66438
13.7306,-156.723,0,-1.66297
13.6853,-157.214,0,-1.66233
13.6369,-157.741,0,-1.66162
13.5924,-158.229,0,-1.66096
13.5482,-158.718,0,-1.66028
13.5044,-159.207,0,-1.65942
13.462,-159.684,0,-1.65866
13.4212,-160.147,0,-1.65786
13.3818,-160.599,0,-1.65698
13.3428,-161.05,0,-1.65627
13.3052,-161.489,0,-1.65587
13.2688,-161.915,0,-1.65577
13.2357,-162.304,0,-1.65484
13.2019,-162.705,0,-1.654
13.1705,-163.081,0,-1.65281
13.1396,-163.458,0,-1.65112
13.1113,-163.809,0,-1.64925
13.0817,-164.185,0,-1.64724
13.0539,-164.549,0,-1.64689
13.0242,-164.938,0,-1.64629
12.9929,-165.353,0,-1.64596
12.9626,-165.754,0,-1.64585
12.9315,-166.168,0,-1.64579
12.8994,-166.596,0,-1.64567
12.8655,-167.047,0,-1.64554
12.8335,-167.474,0,-1.64507
12.8018,-167.901,0,-1.64502
12.7691,-168.34,0,-1.64467
12.7357,-168.792,0,-1.64509
12.702,-169.244,0,-1.64572
12.6691,-169.683,0,-1.6467
12.6347,-170.135,0,-1.64797
12.5998,-170.587,0,-1.6489
12.5654,-171.026,0,-1.64981
12.5305,-171.467,0,-1.64919
12.493,-171.944,0,-1.64879
12.4577,-172.395,0,-1.64782
12.4229,-172.847,0,-1.64719
12.3892,-173.286,0,-1.64756
12.3545,-173.738,0,-1.64915
12.321,-174.165,0,-1.64661
12.2876,-174.604,0,-1.6376
12.2582,-175.043,0,-1.61962
12.2374,-175.471,0,-1.59573
12.2267,-175.899,0,-1.5652
12.2292,-176.339,0,-1.52773
12.2476,-176.767,0,-1.48852
12.2827,-177.193,0,-1.4493
12.3346,-177.618,0,-1.4088
12.4077,-178.065,0,-1.37408
12.4938,-178.497,0,-1.3494
12.5933,-178.939,0,-1.33677
12.6983,-179.38,0,-1.33428
12.8045,-179.82,0,-1.33514
12.9132,-180.273,0,-1.33706
13.0182,-180.714,0,-1.33569
13.1221,-181.148,0,-1.35555
13.2215,-181.603,0,-1.37394
13.3126,-182.059,0,-1.39897
13.3944,-182.531,0,-1.42337
13.4628,-182.991,0,-1.45027
13.5218,-183.479,0,-1.47867
13.5647,-183.942,0,-1.50315
13.5961,-184.407,0,-1.52548
13.6178,-184.885,0,-1.54617
13.6299,-185.375,0,-1.5655
13.6325,-185.866,0,-1.57909
13.6286,-186.339,0,-1.59141
13.6187,-186.817,0,-1.60105
13.6039,-187.308,0,-1.61031
13.584,-187.811,0,-1.62018
13.5597,-188.301,0,-1.62909
13.5304,-188.804,0,-1.63746
13.4969,-189.306,0,-1.64593
13.4591,-189.808,0,-1.6558
13.4174,-190.297,0,-1.66124
13.3708,-190.811,0,-1.66301
13.3244,-191.312,0,-1.66568
13.2769,-191.812,0,-1.66355
13.2291,-192.326,0,-1.66356
13.1813,-192.839,0,-1.66335
13.136,-193.328,0,-1.66297
13.0885,-193.842,0,-1.66287
13.0422,-194.343,0,-1.66226
12.9962,-194.845,0,-1.66166
12.9482,-195.371,0,-1.66134
12.9027,-195.872,0,-1.66001
12.8567,-196.386,0,-1.659
12.8124,-196.888,0,-1.65859
12.7672,-197.402,0,-1.65685
12.7228,-197.916,0,-1.65531
12.6793,-198.43,0,-1.65387
12.6364,-198.944,0,-1.65264
12.5953,-199.446,0,-1.65165
12.5536,-199.96,0,-1.65024
12.5137,-200.462,0,-1.64927
12.4732,-200.977,0,-1.64831
12.4332,-201.491,0,-1.64707
12.3939,-202.006,0,-1.64648
12.3559,-202.508,0,-1.64532
12.3202,-202.984,0,-1.64515
12.281,-203.512,0,-1.64459
12.2439,-204.014,0,-1.6439
12.2062,-204.528,0,-1.64325
12.1697,-205.03,0,-1.64266
12.1336,-205.533,0,-1.64211
12.0986,-206.022,0,-1.64166
12.0647,-206.499,0,-1.64106
12.0312,-206.976,0,-1.6407
11.9978,-207.453,0,-1.64016
11.9646,-207.931,0,-1.63917
11.9348,-208.366,0,-1.63904
11.9056,-208.793,0,-1.63861
11.8766,-209.22,0,-1.63861
11.8485,-209.634,0,-1.63822
11.8214,-210.036,0,-1.63557
11.7969,-210.413,0,-1.63197
11.7731,-210.802,0,-1.62706
11.7518,-211.179,0,-1.62131
11.7334,-211.544,0,-1.61362
11.7188,-211.883,0,-1.5989
11.71,-212.198,0,-1.57975
11.7071,-212.521,0,-1.55752
11.7115,-212.848,0,-1.52918
11.7245,-213.163,0,-1.49623
11.7574,-213.602,0,-1.45163
11.8082,-214.027,0,-1.39867
11.8599,-214.324,0,-1.32686
11.9633,-214.739,0,-1.23655
12.1036,-215.143,0,-1.13685
12.2857,-215.536,0,-1.05721
12.4403,-215.81,0,-0.992227
12.6123,-216.074,0,-0.921717
12.8025,-216.324,0,-0.85249
13.026,-216.58,0,-0.783902
13.2667,-216.82,0,-0.723889
13.5118,-217.037,0,-0.667924
13.7983,-217.263,0,-0.610302
14.0974,-217.472,0,-0.558352
14.4069,-217.665,0,-0.505467
14.7262,-217.842,0,-0.442847
15.0529,-217.997,0,-0.42047
15.3861,-218.146,0,-0.39182
15.7467,-218.295,0,-0.363001
16.1114,-218.433,0,-0.33168
16.4803,-218.561,0,-0.299841
16.829,-218.668,0,-0.270632
17.2171,-218.776,0,-0.24156
17.6081,-218.872,0,-0.218486
18.0013,-218.96,0,-0.201902
18.3959,-219.04,0,-0.191363
18.816,-219.122,0,-0.170329
19.2178,-219.191,0,-0.171563
19.627,-219.262,0,-0.169369
20.0488,-219.334,0,-0.170164
20.4705,-219.406,0,-0.172566
20.9045,-219.482,0,-0.175376
21.3382,-219.559,0,-0.178453
21.7593,-219.635,0,-0.180554
22.1803,-219.712,0,-0.182665
22.6259,-219.794,0,-0.182502
23.0343,-219.869,0,-0.182073
23.4552,-219.947,0,-0.183245
23.8648,-220.023,0,-0.180949
24.2609,-220.095,0,-0.17933
24.6572,-220.167,0,-0.174286
25.0539,-220.237,0,-0.168771
25.4385,-220.302,0,-0.162202
25.8111,-220.363,0,-0.156278
26.1717,-220.42,0,-0.150018
26.5326,-220.475,0,-0.144232
26.8937,-220.527,0,-0.137924
27.2677,-220.579,0,-0.132174
27.642,-220.629,0,-0.126259
28.0153,-220.676,0,-0.120109
28.3901,-220.722,0,-0.114629
28.7902,-220.768,0,-0.111024
29.178,-220.811,0,-0.106774
29.5659,-220.852,0,-0.103051
29.9791,-220.895,0,-0.0988082
30.3923,-220.936,0,-0.0964988
30.8183,-220.977,0,-0.0944907
31.2443,-221.018,0,-0.0930719
31.6829,-221.059,0,-0.0921267
32.109,-221.098,0,-0.0915313
32.5479,-221.138,0,-0.089092
32.9992,-221.179,0,-0.0881894
33.4254,-221.216,0,-0.0871986
33.8768,-221.256,0,-0.0861487
34.2906,-221.291,0,-0.0850346
34.7421,-221.33,0,-0.0841451
35.1685,-221.366,0,-0.0834936
35.5823,-221.401,0,-0.0828014
35.9837,-221.434,0,-0.0821759
36.4102,-221.469,0,-0.0819291
36.8116,-221.502,0,-0.0805788
37.1882,-221.532,0,-0.0781412
37.5771,-221.563,0,-0.0705322
37.9663,-221.59,0,-0.0567372
38.3559,-221.612,0,-0.0393945
38.7457,-221.628,0,-0.0107503
39.1233,-221.632,0,0.021219
39.5007,-221.624,0,0.0621678
39.865,-221.601,0,0.105888
40.2279,-221.563,0,0.152451
40.5886,-221.507,0,0.217086
40.9204,-221.434,0,0.281345
41.259,-221.336,0,0.342472
41.5672,-221.226,0,0.403911
41.8911,-221.088,0,0.478323
42.1815,-220.937,0,0.553006
42.4707,-220.759,0,0.628375
42.7353,-220.566,0,0.702313
42.9851,-220.355,0,0.77173
43.2105,-220.136,0,0.839888
43.4289,-219.892,0,0.901697
43.6319,-219.636,0,0.967608
43.8175,-219.366,0,1.02347
43.9918,-219.08,0,1.07318
44.154,-218.782,0,1.11913
44.3132,-218.453,0,1.16674
44.4518,-218.129,0,1.20477
44.5869,-217.777,0,1.24098
44.7092,-217.419,0,1.27392
44.8196,-217.058,0,1.30648
44.9216,-216.682,0,1.33789
45.0116,-216.302,0,1.36363
45.0919,-215.92,0,1.38466
45.1664,-215.524,0,1.40105
45.2349,-215.125,0,1.41495
45.3013,-214.702,0,1.4316
45.3607,-214.279,0,1.44995
45.4138,-213.841,0,1.46634
45.4584,-213.416,0,1.47771
45.4993,-212.977,0,1.48601
45.5377,-212.526,0,1.49124
45.5737,-212.074,0,1.49274
45.609,-211.622,0,1.49284
45.6443,-211.171,0,1.49223
45.6799,-210.719,0,1.49286
45.7148,-210.271,0,1.48918
45.7528,-209.807,0,1.48777
45.7904,-209.356,0,1.48719
45.8303,-208.879,0,1.48625
45.8696,-208.415,0,1.48619
45.9101,-207.938,0,1.48608
45.9505,-207.462,0,1.48623
45.9899,-206.998,0,1.48685
46.03,-206.521,0,1.48753
46.0697,-206.045,0,1.48853
46.1101,-205.555,0,1.48954
46.1476,-205.095,0,1.4896
46.1864,-204.618,0,1.49057
46.2247,-204.141,0,1.49132
46.2627,-203.664,0,1.49195
46.3014,-203.175,0,1.49218
46.3389,-202.698,0,1.49272
46.3762,-202.222,0,1.49335
46.4152,-201.72,0,1.49366
46.452,-201.243,0,1.49436
46.4886,-200.766,0,1.49463
46.5249,-200.289,0,1.49505
46.5615,-199.808,0,1.49585
46.5973,-199.331,0,1.49613
46.632,-198.866,0,1.49659
46.6675,-198.389,0,1.49719
46.6999,-197.95,0,1.4978
46.7348,-197.473,0,1.49781
46.7678,-197.021,0,1.49799
46.7989,-196.594,0,1.49844
46.8308,-196.155,0,1.49849
46.8626,-195.716,0,1.49893
46.8942,-195.276,0,1.50049
46.9236,-194.86,0,1.49956
46.954,-194.433,0,1.50017
46.9834,-194.018,0,1.50142
47.0121,-193.604,0,1.50262
47.0404,-193.19,0,1.50301
47.0686,-192.775,0,1.50435
47.0961,-192.361,0,1.51029
47.1205,-191.959,0,1.52061
47.1407,-191.557,0,1.53514
47.156,-191.129,0,1.5512
47.1641,-190.714,0,1.56726
47.1656,-190.277,0,1.58721
47.1588,-189.861,0,1.60581
47.1434,-189.421,0,1.62539
47.1194,-188.981,0,1.64506
47.0858,-188.529,0,1.664
47.0436,-188.078,0,1.68041
46.9954,-187.64,0,1.69647
46.937,-187.178,0,1.71084
46.8738,-186.73,0,1.72356
46.8029,-186.27,0,1.73212
46.7281,-185.81,0,1.73598
46.6529,-185.359,0,1.73756
46.5756,-184.9,0,1.73594
46.5032,-184.465,0,1.72885
46.4299,-184.005,0,1.71707
46.3675,-183.582,0,1.70341
46.3093,-183.145,0,1.68666
46.2569,-182.695,0,1.66952
46.2135,-182.257,0,1.65221
46.1787,-181.83,0,1.63495
46.1505,-181.391,0,1.61943
46.1297,-180.963,0,1.60089
46.1179,-180.573,0,1.59569
46.1076,-180.158,0,1.5859
46.1013,-179.742,0,1.57561
46.0994,-179.339,0,1.56639
46.101,-178.974,0,1.55764
46.1059,-178.597,0,1.54912
46.1138,-178.232,0,1.54089
46.1248,-177.867,0,1.53305
46.1376,-177.528,0,1.52688
46.1536,-177.163,0,1.51919
46.1718,-176.811,0,1.51649
46.1913,-176.453,0,1.5058
46.215,-176.089,0,1.49903
46.2402,-175.737,0,1.49214
46.2689,-175.373,0,1.48465
46.3014,-174.997,0,1.47536
46.3374,-174.621,0,1.46923
46.3757,-174.246,0,1.46821
46.4156,-173.857,0,1.46921
46.4539,-173.482,0,1.46977
46.4945,-173.081,0,1.47052
46.5348,-172.68,0,1.46982
46.572,-172.313,0,1.47382
46.6122,-171.9,0,1.47594
46.6516,-171.487,0,1.4784
46.6899,-171.073,0,1.48065
46.7284,-170.647,0,1.48335
46.7658,-170.221,0,1.48577
46.8021,-169.794,0,1.4884
46.8374,-169.368,0,1.48959
46.8731,-168.929,0,1.49028
46.9085,-168.49,0,1.49069
46.9448,-168.038,0,1.49105
46.9789,-167.611,0,1.4913
47.0129,-167.184,0,1.49186
47.0466,-166.758,0,1.49227
47.0812,-166.319,0,1.49265
47.1136,-165.905,0,1.49305
47.1459,-165.49,0,1.49356
47.1789,-165.064,0,1.49391
47.2098,-164.662,0,1.49411
47.2407,-164.261,0,1.49475
47.2713,-163.859,0,1.49501
47.3018,-163.457,0,1.49498
47.3322,-163.056,0,1.49566
47.3606,-162.68,0,1.4959
47.3898,-162.291,0,1.49638
47.4169,-161.927,0,1.49663
47.444,-161.563,0,1.49699
47.4699,-161.211,0,1.49714
47.494,-160.885,0,1.49758
47.5161,-160.584,0,1.49803
47.5472,-160.157,0,1.49827
47.5737,-159.793,0,1.49899
47.602,-159.399,0,1.49868
47.6265,-159.06,0,1.49895
47.65,-158.733,0,1.49911
47.6716,-158.432,0,1.49939
47.6938,-158.123,0,1.5006
47.7149,-157.823,0,1.5004
47.7361,-157.521,0,1.49883
47.7586,-157.209,0,1.48772
47.7847,-156.896,0,1.4593
47.8197,-156.583,0,1.41374
47.8709,-156.26,0,1.35476
47.9424,-155.934,0,1.30026
48.0231,-155.643,0,1.25833
48.1177,-155.35,0,1.25833
