x, y, z, theta
17.6074,-50.938,0,2.388
17.3137,-50.6624,0,2.38718
17.0294,-50.3952,0,2.38838
16.7356,-50.1197,0,2.38855
16.4325,-49.8357,0,2.38859
16.2121,-49.6291,0,2.38902
15.8663,-49.3053,0,2.38854
15.6091,-49.0643,0,2.38824
15.3245,-48.7973,0,2.38798
15.0492,-48.539,0,2.3877
14.7556,-48.2633,0,2.386
14.4441,-47.9699,0,2.38802
14.1321,-47.6771,0,2.3886
13.8015,-47.3672,0,2.38851
13.4709,-47.0574,0,2.38889
13.1402,-46.7476,0,2.38641
12.7828,-46.4112,0,2.38227
12.4403,-46.0861,0,2.37276
12.0785,-45.7361,0,2.3648
11.6926,-45.3567,0,2.35811
11.3091,-44.9748,0,2.35148
10.9105,-44.5724,0,2.34434
10.5236,-44.1762,0,2.33982
10.3136,-43.9592,0,2.33821
10.1038,-43.7418,0,2.33704
9.89439,-43.5241,0,2.33611
9.68512,-43.3063,0,2.3356
9.47598,-43.0883,0,2.33524
9.26691,-42.8703,0,2.33488
9.0405,-42.634,0,2.3347
8.83155,-42.4159,0,2.3346
8.60521,-42.1796,0,2.33379
8.39646,-41.9613,0,2.33117
7.99336,-41.5375,0,2.33402
7.78456,-41.3192,0,2.33385
7.5584,-41.0827,0,2.33388
7.33223,-40.8462,0,2.33371
7.1235,-40.6278,0,2.3334
6.89744,-40.3912,0,2.33333
6.6714,-40.1546,0,2.33334
6.46274,-39.9362,0,2.33335
6.24539,-39.7087,0,2.33109
6.03723,-39.4898,0,2.33288
5.82868,-39.2713,0,2.33256
5.61151,-39.0436,0,2.33181
5.40319,-38.8249,0,2.33154
5.19493,-38.6061,0,2.33122
4.78722,-38.1775,0,2.32999
4.39737,-37.7666,0,2.3298
4.02491,-37.374,0,2.33026
3.65978,-36.9894,0,2.33173
3.33864,-36.6522,0,2.33291
2.99104,-36.288,0,2.33569
2.65986,-35.9429,0,2.33931
2.32744,-35.5991,0,2.34119
2.00313,-35.2649,0,2.34541
1.67741,-34.9321,0,2.34635
1.37782,-34.6265,0,2.34504
1.08743,-34.3296,0,2.34143
0.824425,-34.0587,0,2.33657
0.597626,-33.8228,0,2.33547
0.379797,-33.5958,0,2.33635
0.161893,-33.369,0,2.32376
-0.0532637,-33.1395,0,2.31795
-0.258528,-32.9179,0,2.30909
-0.538057,-32.6107,0,2.29903
-0.797733,-32.3195,0,2.28678
-1.0373,-32.0441,0,2.27366
-1.25696,-31.7848,0,2.25863
-1.46471,-31.532,0,2.2434
-1.66866,-31.2759,0,2.20532
-1.89993,-30.9617,0,2.15609
-2.10155,-30.6575,0,2.10721
-2.2752,-30.3655,0,2.05345
-2.41538,-30.0979,0,1.99015
-2.55372,-29.7876,0,1.92476
-2.67911,-29.4483,0,1.85193
-2.76988,-29.134,0,1.78556
-2.83692,-28.8266,0,1.72448
-2.88894,-28.4908,0,1.67553
-2.93104,-28.0903,0,1.64283
-2.95912,-27.7012,0,1.59941
-2.96781,-27.3976,0,1.56512
-2.96545,-26.9824,0,1.51322
-2.94735,-26.6683,0,1.46602
-2.91181,-26.3303,0,1.41474
-2.85705,-25.9823,0,1.36719
-2.78071,-25.6125,0,1.31902
-2.67725,-25.2103,0,1.26703
-2.54926,-24.802,0,1.21443
-2.38682,-24.3657,0,1.16517
-2.19812,-23.9263,0,1.10201
-1.98106,-23.4977,0,1.08527
-1.74026,-23.0413,0,1.04913
-1.49567,-22.6158,0,1.01149
-1.20853,-22.1571,0,0.97295
-0.911017,-21.7202,0,0.937848
-0.5909,-21.2838,0,0.90934
-0.243008,-20.8369,0,0.88411
0.10807,-20.4087,0,0.865011
0.303998,-20.1788,0,0.850482
0.644377,-19.7909,0,0.840832
0.879378,-19.5283,0,0.833999
1.2853,-19.0809,0,0.798492
1.66415,-18.692,0,0.820216
2.09337,-18.2318,0,0.815046
2.5077,-17.7921,0,0.810769
2.94125,-17.336,0,0.808226
3.36727,-16.8901,0,0.805223
3.82078,-16.4182,0,0.802193
4.26698,-15.9568,0,0.799283
4.71451,-15.4966,0,0.794629
5.16419,-15.0386,0,0.792118
5.60617,-14.5906,0,0.788022
6.04998,-14.1445,0,0.78458
6.47369,-13.7214,0,0.779541
6.90337,-13.2968,0,0.775223
7.32588,-12.8828,0,0.771419
7.759,-12.4616,0,0.770269
8.18356,-12.0497,0,0.769837
8.61734,-11.6292,0,0.769973
9.05106,-11.2087,0,0.770845
9.48441,-10.7877,0,0.770487
9.90888,-10.3757,0,0.772795
10.1251,-10.1649,0,0.773657
10.3412,-9.95379,0,0.773416
10.5574,-9.74278,0,0.77332
10.7735,-9.53178,0,0.773371
10.9897,-9.32078,0,0.776942
11.2147,-9.09954,0,0.771344
11.6388,-8.68717,0,0.770076
11.8556,-8.47688,0,0.767962
12.0729,-8.26705,0,0.768267
12.2901,-8.05715,0,0.767313
12.7159,-7.6465,0,0.766693
12.9425,-7.42821,0,0.766236
13.1602,-7.21876,0,0.766098
13.3869,-7.0006,0,0.766428
13.8221,-6.5816,0,0.767261
14.257,-6.16224,0,0.767775
14.6825,-5.7514,0,0.771217
15.1067,-5.33909,0,0.777745
15.5192,-4.93286,0,0.791015
15.9344,-4.51296,0,0.800793
16.3199,-4.11539,0,0.812064
16.7096,-3.70438,0,0.827978
17.0842,-3.29648,0,0.844116
17.4604,-2.87321,0,0.857297
17.8146,-2.46403,0,0.872975
18.1624,-2.04935,0,0.886139
18.5126,-1.62038,0,0.897806
18.8499,-1.19719,0,0.907147
19.191,-0.760947,0,0.911197
19.515,-0.343219,0,0.920209
19.8428,0.0875092,0,0.91488
20.1652,0.506427,0,0.913453
20.4959,0.934844,0,0.915809
20.8332,1.37402,0,0.915535
21.163,1.80312,0,0.91333
21.5014,2.24145,0,0.910538
21.8333,2.66891,0,0.905529
22.1674,3.0947,0,0.896395
22.4975,3.50758,0,0.884895
22.8323,3.91665,0,0.869957
23.165,4.31104,0,0.852143
23.477,4.66766,0,0.832816
23.8072,5.0308,0,0.814973
24.1352,5.37883,0,0.804583
24.4407,5.69623,0,0.794138
24.7671,6.02838,0,0.783691
25.0702,6.33045,0,0.765582
25.3696,6.61825,0,0.738504
25.6768,6.89784,0,0.710208
25.9917,7.16863,0,0.677816
26.2956,7.41328,0,0.638483
26.6088,7.6458,0,0.602361
26.9355,7.87041,0,0.551642
27.2463,8.06169,0,0.505351
27.5547,8.23228,0,0.462957
27.8474,8.37841,0,0.42135
28.146,8.51224,0,0.377624
28.4502,8.63288,0,0.323377
28.8439,8.76484,0,0.266856
29.1474,8.84781,0,0.214304
29.4425,8.91204,0,0.152573
29.7783,8.96367,0,0.0905137
30.1042,8.99325,0,0.021346
30.4605,9.00085,0,-0.0546602
30.8374,8.98023,0,-0.131759
31.2241,8.92898,0,-0.208846
31.618,8.84549,0,-0.28779
32.0161,8.72765,0,-0.375411
32.4142,8.57079,0,-0.450335
32.8107,8.37909,0,-0.518
33.2042,8.15478,0,-0.5721
33.6169,7.88906,0,-0.612266
34.0186,7.60697,0,-0.639163
34.2711,7.41928,0,-0.679907
34.6717,7.09537,0,-0.694958
35.0971,6.74076,0,-0.71865
35.5139,6.37617,0,-0.743654
35.9492,5.97572,0,-0.768423
36.3836,5.55586,0,-0.783721
36.8382,5.10274,0,-0.789712
37.299,4.63797,0,-0.792186
37.7763,4.15414,0,-0.793828
38.2528,3.66952,0,-0.793711
38.7559,3.15804,0,-0.791227
39.2602,2.64781,0,-0.78525
39.728,2.18017,0,-0.757812
40.2491,1.68708,0,-0.740968
40.4812,1.4747,0,-0.732669
40.7993,1.18848,0,-0.71585
41.0272,0.990249,0,-0.702028
41.3828,0.68953,0,-0.681928
41.9691,0.213571,0,-0.663409
42.217,0.0198063,0,-0.651327
42.5773,-0.254878,0,-0.641971
42.8192,-0.435746,0,-0.633712
43.1945,-0.711496,0,-0.627999
43.4389,-0.888968,0,-0.625061
43.8064,-1.1541,0,-0.627378
44.0509,-1.33141,0,-0.624896
44.4184,-1.59648,0,-0.626681
44.6732,-1.78101,0,-0.628805
45.0295,-2.04011,0,-0.632599
45.2731,-2.21871,0,-0.639511
45.6367,-2.48912,0,-0.637512
46.2141,-2.91684,0,-0.661371
46.4525,-3.10236,0,-0.668792
46.8179,-3.3911,0,-0.67628
47.0633,-3.58804,0,-0.687101
47.4233,-3.88342,0,-0.690676
47.6658,-4.08387,0,-0.697539
48.0227,-4.383,0,-0.704744
48.2528,-4.57869,0,-0.712254
48.6053,-4.88303,0,-0.719583
48.8325,-5.08211,0,-0.726945
49.1616,-5.37487,0,-0.735442
49.395,-5.58597,0,-0.742247
49.7103,-5.87522,0,-0.748644
49.9316,-6.08082,0,-0.755802
50.2522,-6.38296,0,-0.765832
50.4699,-6.59233,0,-0.771312
50.7677,-6.88186,0,-0.78952
51.2817,-7.40014,0,-0.817349
51.7725,-7.92334,0,-0.83846
51.9745,-8.14796,0,-0.844585
52.271,-8.48185,0,-0.87767
52.7374,-9.04338,0,-0.908983
53.186,-9.61923,0,-0.934548
53.6123,-10.1962,0,-0.949595
53.7881,-10.4419,0,-0.958957
54.0267,-10.7819,0,-0.967616
54.4408,-11.383,0,-0.973639
54.8371,-11.9659,0,-0.975109
55.0065,-12.2159,0,-0.975108
55.2537,-12.5806,0,-0.976314
55.6626,-13.1853,0,-0.973418
56.0732,-13.7889,0,-0.970664
56.2438,-14.0382,0,-0.965242
56.4945,-14.4003,0,-0.95686
56.8978,-14.9725,0,-0.94313
57.0752,-15.217,0,-0.93428
57.337,-15.5713,0,-0.925681
57.5186,-15.8126,0,-0.918879
57.7783,-16.1528,0,-0.901752
58.192,-16.676,0,-0.889722
58.4218,-16.9596,0,-0.879316
58.6385,-17.2214,0,-0.871941
58.8814,-17.5104,0,-0.862992
59.1187,-17.7877,0,-0.85482
59.35,-18.0536,0,-0.849131
59.641,-18.3843,0,-0.843106
60.0764,-18.873,0,-0.843769
60.3273,-19.1551,0,-0.838189
60.6135,-19.4733,0,-0.836423
60.8159,-19.6975,0,-0.834291
61.1203,-20.0331,0,-0.833102
61.3234,-20.2567,0,-0.83199
61.6286,-20.5916,0,-0.824073
62.1392,-21.1434,0,-0.828181
62.3435,-21.3659,0,-0.82739
62.6501,-21.6995,0,-0.829025
62.8542,-21.9222,0,-0.825173
63.1702,-22.2643,0,-0.82419
63.3753,-22.486,0,-0.823154
63.6491,-22.7814,0,-0.822426
63.9061,-23.0581,0,-0.821612
64.1804,-23.353,0,-0.820471
64.4378,-23.6292,0,-0.819799
64.7126,-23.9236,0,-0.819495
64.9704,-24.1995,0,-0.818553
65.2456,-24.4936,0,-0.817164
65.5126,-24.7781,0,-0.8212
65.7784,-25.0637,0,-0.815625
66.0545,-25.357,0,-0.814239
66.3136,-25.6315,0,-0.812653
66.5906,-25.924,0,-0.81103
66.8506,-26.1977,0,-0.808373
67.1201,-26.4799,0,-0.806953
67.4509,-26.8253,0,-0.805339
67.6777,-27.0612,0,-0.795415
67.932,-27.3208,0,-0.803569
68.2116,-27.6107,0,-0.802866
68.4914,-27.9004,0,-0.806735
68.7613,-28.1821,0,-0.801479
69.0415,-28.4715,0,-0.800813
69.3219,-28.7606,0,-0.800391
69.6024,-29.0496,0,-0.799996
69.8742,-29.3295,0,-0.799604
70.1549,-29.6183,0,-0.799236
70.4182,-29.889,0,-0.798925
70.6903,-30.1686,0,-0.798587
70.945,-30.4301,0,-0.798719
71.1996,-30.6916,0,-0.798862
71.4454,-30.9441,0,-0.802025
71.6729,-31.1793,0,-0.799268
71.9011,-31.4139,0,-0.799848
72.1203,-31.6396,0,-0.800142
72.3308,-31.8563,0,-0.800283
72.585,-32.1182,0,-0.80058
72.9618,-32.5066,0,-0.80099
73.172,-32.7235,0,-0.791181
73.3848,-32.9388,0,-0.801746
73.7962,-33.3639,0,-0.803074
74.1896,-33.7714,0,-0.80236
74.5657,-34.1605,0,-0.802927
74.9329,-34.5407,0,-0.803512
75.2736,-34.8941,0,-0.80417
75.6316,-35.2657,0,-0.805672
75.9105,-35.5562,0,-0.805367
76.2245,-35.883,0,-0.805937
76.4772,-36.1463,0,-0.80661
76.7385,-36.4189,0,-0.802211
77.0138,-36.7037,0,-0.808606
77.2659,-36.9677,0,-0.806096
77.5273,-37.2401,0,-0.804518
77.7804,-37.5031,0,-0.80349
78.0338,-37.7658,0,-0.802588
78.2874,-38.0283,0,-0.802146
78.5411,-38.2907,0,-0.803013
78.7771,-38.5352,0,-0.80164
79.0135,-38.7793,0,-0.801291
79.2412,-39.0144,0,-0.800491
79.469,-39.2492,0,-0.796798
79.7011,-39.4866,0,-0.799329
79.9468,-39.7393,0,-0.796617
80.1756,-39.9733,0,-0.797524
80.4041,-40.2074,0,-0.798446
80.6237,-40.4328,0,-0.80017
80.8429,-40.6586,0,-0.805022
81.0784,-40.9035,0,-0.814833
81.2943,-41.1325,0,-0.825297
81.5077,-41.3636,0,-0.838065
81.7097,-41.5882,0,-0.851621
81.917,-41.8249,0,-0.866913
82.1876,-42.1436,0,-0.885392
82.4505,-42.4651,0,-0.892893
82.703,-42.7788,0,-0.899193
82.9223,-43.0547,0,-0.903549
83.1248,-43.3117,0,-0.903826
83.3117,-43.5491,0,-0.903815
83.5297,-43.826,0,-0.900497
83.7377,-44.0883,0,-0.902425
83.9327,-44.3353,0,-0.900588
84.1281,-44.5819,0,-0.899995
84.3315,-44.8382,0,-0.898657
84.5431,-45.1041,0,-0.895061
84.771,-45.3884,0,-0.893812
85.0076,-45.6827,0,-0.890836
85.245,-45.9763,0,-0.887734
85.4754,-46.2594,0,-0.88479
85.6986,-46.5321,0,-0.883778
85.8981,-46.7754,0,-0.885663
86.0926,-47.0133,0,-0.882672
86.2924,-47.2563,0,-0.85006
86.5201,-47.5156,0,-0.804174
86.7559,-47.7604,0,-0.75712
86.9845,-47.9765,0,-0.716044
87.2504,-48.2078,0,-0.67534
87.5647,-48.4595,0,-0.648039
87.9159,-48.7254,0,-0.623121
88.2514,-48.9665,0,-0.630742
88.5055,-49.1521,0,-0.635069
88.7791,-49.3537,0,-0.645354
89.0606,-49.5656,0,-0.659229
89.3491,-49.7892,0,-0.677797
89.6432,-50.026,0,-0.699473
89.9417,-50.2771,0,-0.719803
90.2351,-50.5344,0,-0.745242
90.5311,-50.8075,0,-0.776016
90.8096,-51.0807,0,-0.813223
91.0776,-51.3642,0,-0.875969
91.3177,-51.6522,0,-0.906003
91.5584,-51.9592,0,-0.964046
91.7808,-52.2797,0,-1.03324
91.9805,-52.6148,0,-1.09558
92.1533,-52.9505,0,-1.1613
92.3036,-53.2968,0,-1.23125
92.4377,-53.6764,0,-1.29891
92.5424,-54.0522,0,-1.36551
92.6245,-54.4464,0,-1.43487
92.6791,-54.8454,0,-1.50571
92.7061,-55.2598,0,-1.589
92.6985,-55.6789,0,-1.6539
92.6619,-56.1178,0,-1.72503
92.5943,-56.553,0,-1.79688
92.4871,-57.0189,0,-1.87414
92.3442,-57.4753,0,-1.94122
92.1711,-57.921,0,-1.99923
91.9568,-58.3904,0,-2.04342
91.7276,-58.8386,0,-2.09059
91.4651,-59.2974,0,-2.13102
91.1842,-59.7451,0,-2.18082
90.8742,-60.1887,0,-2.24215
90.5611,-60.5828,0,-2.27643
90.2183,-60.9851,0,-2.31877
89.8588,-61.3726,0,-2.36571
89.4905,-61.734,0,-2.41263
89.0963,-62.086,0,-2.46177
88.6852,-62.4183,0,-2.51678
88.2667,-62.7201,0,-2.56988
87.8434,-62.9925,0,-2.62665
87.4053,-63.2404,0,-2.68952
86.9412,-63.4657,0,-2.75773
86.4862,-63.6495,0,-2.84061
86.0273,-63.792,0,-2.90426
85.5503,-63.9074,0,-2.97512
85.0911,-63.9845,0,-3.0541
84.6399,-64.0241,0,-3.1293
84.1743,-64.0298,0,3.07215
83.735,-63.9993,0,2.98617
83.3,-63.9311,0,2.90631
82.8962,-63.8343,0,2.82942
82.501,-63.7068,0,2.74823
82.1059,-63.5428,0,2.67086
81.7358,-63.3545,0,2.60166
81.3701,-63.1353,0,2.54919
80.9942,-62.8823,0,2.50388
80.61,-62.5976,0,2.47359
80.2345,-62.3013,0,2.44242
79.8492,-61.9773,0,2.4104
79.4651,-61.6328,0,2.38262
79.0633,-61.2517,0,2.37158
78.6657,-60.8661,0,2.37638
78.2482,-60.4651,0,2.38993
78.0275,-60.2589,0,2.39826
77.7958,-60.0459,0,2.4123
77.3454,-59.6434,0,2.44142
76.869,-59.2419,0,2.44626
76.6274,-59.0404,0,2.45997
76.3928,-58.85,0,2.47093
76.1463,-58.6545,0,2.48247
75.8876,-58.4541,0,2.49394
75.6367,-58.2642,0,2.50202
75.3943,-58.084,0,2.50859
75.1406,-57.8978,0,2.51437
74.8859,-57.7132,0,2.51716
74.6408,-57.5366,0,2.51828
74.3853,-57.3529,0,2.51716
74.1301,-57.1689,0,2.51207
73.8859,-56.9911,0,2.50985
73.6421,-56.8127,0,2.50388
73.3994,-56.6329,0,2.49766
73.1579,-56.4515,0,2.49144
72.9174,-56.2687,0,2.48461
72.6683,-56.0765,0,2.47518
72.2231,-55.7264,0,2.46572
71.9874,-55.5374,0,2.46091
71.5449,-55.1791,0,2.44063
71.3141,-54.9843,0,2.43559
71.0842,-54.7883,0,2.42789
70.8559,-54.5906,0,2.41707
70.4223,-54.2068,0,2.40535
69.984,-53.8096,0,2.39317
69.5598,-53.4157,0,2.37595
69.1515,-53.0232,0,2.3461
68.7463,-52.6097,0,2.30991
68.3478,-52.1725,0,2.27293
67.982,-51.7401,0,2.2347
67.633,-51.2941,0,2.19132
67.3085,-50.8401,0,2.16861
67.0039,-50.3927,0,2.15297
66.7064,-49.9407,0,2.14048
66.4213,-49.4956,0,2.13701
66.158,-49.0813,0,2.1405
65.8864,-48.6574,0,2.14617
65.633,-48.2667,0,2.15263
65.3702,-47.8671,0,2.16337
65.1242,-47.5017,0,2.16994
64.8686,-47.1275,0,2.1793
64.6168,-46.7661,0,2.20024
64.3647,-46.42,0,2.20316
64.1118,-46.0748,0,2.21808
63.8386,-45.7133,0,2.23147
63.5605,-45.3556,0,2.247
63.2849,-45.012,0,2.26041
63.0046,-44.6722,0,2.27509
62.7194,-44.3365,0,2.28874
62.4461,-44.0236,0,2.30222
62.1687,-43.7145,0,2.30968
61.889,-43.4075,0,2.31325
61.6167,-43.1108,0,2.32015
61.345,-42.8187,0,2.31451
61.0809,-42.5316,0,2.31677
60.8161,-42.245,0,2.31737
60.5511,-41.9587,0,2.31898
60.2942,-41.6819,0,2.32144
60.0538,-41.4242,0,2.3241
59.8128,-41.1672,0,2.32406
59.5803,-40.9193,0,2.33009
59.3464,-40.6728,0,2.3384
59.1104,-40.4283,0,2.35081
58.8891,-40.2046,0,2.36973
58.5781,-39.9019,0,2.39091
58.2652,-39.61,0,2.41853
58.0388,-39.4101,0,2.44038
57.7983,-39.2071,0,2.46738
57.5427,-39.0029,0,2.50053
57.2704,-38.7996,0,2.54244
56.9586,-38.5867,0,2.59049
56.6584,-38.4022,0,2.63263
56.3287,-38.2183,0,2.68463
56.0238,-38.0683,0,2.73497
55.7124,-37.9343,0,2.77661
55.4068,-37.8175,0,2.82876
55.1075,-37.7206,0,2.87155
54.7921,-37.6334,0,2.91928
54.4975,-37.5668,0,2.96459
54.1754,-37.5091,0,3.01319
53.8634,-37.4689,0,3.05648
53.5499,-37.4421,0,3.09781
53.2356,-37.4283,0,3.1373
52.9335,-37.427,0,-3.10177
52.594,-37.4406,0,-3.05186
52.2765,-37.4691,0,-3.03224
51.9137,-37.509,0,-2.99469
51.5526,-37.5624,0,-2.95723
51.1939,-37.6293,0,-2.91725
50.838,-37.7105,0,-2.87405
50.4739,-37.8103,0,-2.83004
50.1265,-37.9222,0,-2.78871
49.784,-38.0483,0,-2.74127
49.4479,-38.1905,0,-2.69981
49.118,-38.3466,0,-2.64904
48.8075,-38.5132,0,-2.56677
48.5241,-38.6968,0,-2.54689
48.2427,-38.8872,0,-2.49005
47.9725,-39.0932,0,-2.4239
47.745,-39.2918,0,-2.37147
47.5192,-39.5108,0,-2.31229
47.3152,-39.7336,0,-2.23835
47.0426,-40.0794,0,-2.1514
46.8079,-40.4371,0,-2.06879
46.6096,-40.8019,0,-1.99623
46.4215,-41.2171,0,-1.89251
46.2862,-41.6229,0,-1.79523
46.1938,-42.0276,0,-1.70346
46.1439,-42.4018,0,-1.61569
46.1253,-42.8165,0,-1.51871
46.1475,-43.2437,0,-1.42608
46.2092,-43.667,0,-1.32922
46.3146,-44.0945,0,-1.21387
46.4571,-44.4767,0,-1.13298
46.6331,-44.8527,0,-1.0427
46.8486,-45.2222,0,-0.954159
47.096,-45.5712,0,-0.888812
47.2943,-45.8155,0,-0.838339
47.5132,-46.0588,0,-0.7921
47.743,-46.2917,0,-0.753281
48,-46.5327,0,-0.720691
48.2837,-46.7819,0,-0.698169
48.5624,-47.0158,0,-0.68183
48.8751,-47.2696,0,-0.670544
49.1907,-47.5198,0,-0.667238
49.5169,-47.7769,0,-0.671558
49.8322,-48.0275,0,-0.677769
50.1852,-48.3116,0,-0.685477
50.5262,-48.5904,0,-0.688136
50.8762,-48.8782,0,-0.692448
51.2443,-49.1835,0,-0.69715
51.6206,-49.4987,0,-0.705129
51.9848,-49.8087,0,-0.717983
52.335,-50.1145,0,-0.723294
52.7029,-50.4394,0,-0.729165
53.0878,-50.7832,0,-0.735546
53.4704,-51.1295,0,-0.740162
53.8793,-51.5029,0,-0.742302
54.2688,-51.8603,0,-0.743545
54.6764,-52.2351,0,-0.743885
55.0654,-52.5931,0,-0.747334
55.4439,-52.9438,0,-0.751605
55.8117,-53.2876,0,-0.754489
56.1786,-53.6324,0,-0.756473
56.5054,-53.9408,0,-0.760448
56.8428,-54.2618,0,-0.762978
57.1611,-54.5662,0,-0.767913
57.5052,-54.8984,0,-0.771322
57.8391,-55.223,0,-0.775784
58.1535,-55.5315,0,-0.783283
58.4924,-55.869,0,-0.789256
58.8205,-56.1995,0,-0.793907
59.1469,-56.5316,0,-0.796746
59.4725,-56.8646,0,-0.799025
59.7885,-57.1894,0,-0.800502
60.0953,-57.5056,0,-0.803711
60.3923,-57.8136,0,-0.803116
60.7069,-58.1397,0,-0.802776
61.0217,-58.4656,0,-0.80186
61.3368,-58.7912,0,-0.80075
61.6434,-59.1074,0,-0.800691
61.9676,-59.4417,0,-0.798049
62.284,-59.7661,0,-0.796525
62.592,-60.0811,0,-0.795388
62.9091,-60.4046,0,-0.794488
63.209,-60.71,0,-0.790587
63.5297,-61.034,0,-0.794406
63.8295,-61.3393,0,-0.792752
64.1122,-61.6262,0,-0.792206
64.4127,-61.9308,0,-0.792206
64.7133,-62.2355,0,-0.792672
64.996,-62.5223,0,-0.794935
65.278,-62.8098,0,-0.794289
65.5691,-63.1061,0,-0.79572
65.8421,-63.3848,0,-0.796363
66.115,-63.6637,0,-0.796938
66.3965,-63.9518,0,-0.794746
66.6885,-64.2494,0,-0.79886
66.9695,-64.538,0,-0.798323
67.2593,-64.8354,0,-0.801138
67.5396,-65.1247,0,-0.803994
67.8365,-65.4328,0,-0.807975
68.1235,-65.7331,0,-0.816045
68.4253,-66.054,0,-0.823127
68.7162,-66.3677,0,-0.831161
68.9962,-66.6746,0,-0.838092
69.274,-66.9833,0,-0.841864
69.5507,-67.2931,0,-0.841899
69.8281,-67.6039,0,-0.844429
70.104,-67.9144,0,-0.843384
70.3885,-68.234,0,-0.843914
70.6729,-68.5538,0,-0.843443
70.9658,-68.8828,0,-0.841996
71.2676,-69.2208,0,-0.841383
71.5779,-69.568,0,-0.837533
71.898,-69.9233,0,-0.835095
72.219,-70.2779,0,-0.831825
72.5581,-70.65,0,-0.828285
72.907,-71.0302,0,-0.822935
73.2461,-71.3958,0,-0.825241
73.6047,-71.7842,0,-0.8219
73.9732,-72.1806,0,-0.819466
74.3426,-72.5761,0,-0.816459
74.7046,-72.9613,0,-0.813029
75.0679,-73.3453,0,-0.811947
75.449,-73.7471,0,-0.808327
75.8228,-74.1385,0,-0.806463
76.1973,-74.5292,0,-0.805127
76.5724,-74.9193,0,-0.804405
76.9564,-75.3183,0,-0.799231
77.3252,-75.6974,0,-0.804422
77.6918,-76.0782,0,-0.802385
78.0679,-76.4673,0,-0.801718
78.4356,-76.8472,0,-0.801175
78.7946,-77.2178,0,-0.801044
79.145,-77.5793,0,-0.803876
79.4769,-77.9236,0,-0.805469
79.8169,-78.2776,0,-0.809693
80.1381,-78.6148,0,-0.815979
80.4486,-78.9448,0,-0.824294
80.7563,-79.2775,0,-0.831093
81.0523,-79.6018,0,-0.848664
81.3351,-79.9229,0,-0.861509
81.6056,-80.2381,0,-0.880244
81.8622,-80.5486,0,-0.903185
82.1115,-80.8648,0,-0.929595
82.3373,-81.1674,0,-0.957925
82.5545,-81.4763,0,-0.984226
82.7565,-81.7802,0,-1.01425
82.9427,-82.0795,0,-1.04853
83.1122,-82.374,0,-1.08451
83.2593,-82.6521,0,-1.12144
83.4044,-82.9532,0,-1.16949
83.5372,-83.266,0,-1.21462
83.6469,-83.5608,0,-1.26297
83.7498,-83.8847,0,-1.30831
83.8315,-84.1885,0,-1.35259
83.8969,-84.4834,0,-1.40086
83.9543,-84.8183,0,-1.44724
83.9977,-85.168,0,-1.49237
84.0263,-85.5318,0,-1.54489
84.0361,-85.9092,0,-1.59768
84.0263,-86.274,0,-1.63929
84,-86.6577,0,-1.7069
83.9505,-87.0193,0,-1.76229
83.8786,-87.3899,0,-1.81676
83.7897,-87.7439,0,-1.86656
83.6907,-88.0689,0,-1.91959
83.566,-88.4119,0,-1.96607
83.4206,-88.7603,0,-2.0139
83.2587,-89.1014,0,-2.05528
83.077,-89.4466,0,-2.08804
82.8841,-89.7857,0,-2.11672
82.6815,-90.1192,0,-2.16629
82.4591,-90.4475,0,-2.17394
82.2235,-90.7895,0,-2.20324
81.9855,-91.1143,0,-2.2348
81.7217,-91.4513,0,-2.26141
81.4572,-91.7715,0,-2.28169
81.1862,-92.0862,0,-2.29819
80.9016,-92.4058,0,-2.30605
80.5977,-92.7419,0,-2.31241
80.2832,-93.0853,0,-2.31763
79.9412,-93.4547,0,-2.32118
79.5979,-93.8229,0,-2.32284
79.2566,-94.1878,0,-2.32974
