x, y, z, theta
63.7711,7.45906,0,-0.295085
64.0579,7.37171,0,-0.294987
64.371,7.27648,0,-0.294757
64.708,7.17345,0,-0.292243
65.0331,7.07444,0,-0.287777
65.3948,6.96609,0,-0.282353
65.8138,6.84302,0,-0.275842
66.1041,6.7593,0,-0.270623
66.431,6.66667,0,-0.264899
66.7707,6.57277,0,-0.258265
67.1352,6.47446,0,-0.251323
67.5005,6.37871,0,-0.244494
67.903,6.27617,0,-0.238257
68.294,6.17986,0,-0.232763
68.698,6.08339,0,-0.229478
69.1269,5.98293,0,-0.227664
69.556,5.8834,0,-0.226046
70.0014,5.78132,0,-0.224509
70.4553,5.6773,0,-0.222236
70.9095,5.57421,0,-0.220345
71.3883,5.46646,0,-0.218364
71.8429,5.3654,0,-0.216864
72.3345,5.25696,0,-0.216258
72.8262,5.14886,0,-0.215785
73.318,5.04105,0,-0.215742
73.8098,4.93346,0,-0.215851
74.3262,4.82041,0,-0.21634
74.8056,4.71518,0,-0.216993
75.3111,4.60441,0,-0.217789
75.8395,4.48766,0,-0.218541
76.3555,4.37311,0,-0.219754
76.896,4.25256,0,-0.2207
77.4119,4.13702,0,-0.221679
77.9399,4.01817,0,-0.222881
78.48,3.89617,0,-0.223089
79.0201,3.77368,0,-0.223729
79.5602,3.65116,0,-0.223791
80.1002,3.52837,0,-0.224007
80.6524,3.40255,0,-0.224611
81.1503,3.28865,0,-0.22478
81.7147,3.15968,0,-0.225116
82.2668,3.03335,0,-0.225349
82.8312,2.90434,0,-0.225081
83.3833,2.77783,0,-0.225011
83.9354,2.65159,0,-0.224882
84.4876,2.52546,0,-0.224212
84.7821,2.4583,0,-0.224281
85.3465,2.3296,0,-0.224028
85.911,2.20096,0,-0.224031
86.4755,2.0724,0,-0.223853
87.04,1.94397,0,-0.223646
87.5942,1.81806,0,-0.223764
88.1587,1.6896,0,-0.223625
88.4532,1.6226,0,-0.223719
89.0177,1.49407,0,-0.223882
89.3123,1.42705,0,-0.22361
89.6068,1.36007,0,-0.223593
90.1713,1.23163,0,-0.22382
90.7359,1.10316,0,-0.223797
91.3126,0.971844,0,-0.2238
91.6072,0.904751,0,-0.224474
92.1838,0.772964,0,-0.224804
92.4783,0.705715,0,-0.224972
93.0427,0.576687,0,-0.225191
93.595,0.450367,0,-0.226221
93.8894,0.382736,0,-0.226103
94.4537,0.253201,0,-0.225783
94.7481,0.185753,0,-0.225419
95.0426,0.11824,0,-0.226139
95.619,-0.0143661,0,-0.226248
96.1955,-0.146904,0,-0.22625
96.4899,-0.214535,0,-0.226101
97.0541,-0.344315,0,-0.226395
97.3485,-0.412094,0,-0.226584
97.6429,-0.479935,0,-0.226745
97.9372,-0.547672,0,-0.22645
98.2316,-0.615246,0,-0.226697
98.526,-0.682907,0,-0.228298
99.1023,-0.816296,0,-0.230734
99.3965,-0.884914,0,-0.232018
99.9846,-1.02281,0,-0.234272
100.279,-1.09248,0,-0.235135
100.572,-1.16255,0,-0.235982
101.148,-1.30046,0,-0.237303
101.441,-1.3712,0,-0.237929
101.735,-1.44212,0,-0.238421
102.028,-1.51321,0,-0.238685
102.603,-1.65273,0,-0.23935
103.166,-1.78967,0,-0.239702
103.459,-1.8612,0,-0.239815
103.753,-1.93272,0,-0.239687
104.058,-2.00722,0,-0.239839
104.352,-2.07887,0,-0.240386
104.645,-2.15061,0,-0.240584
104.939,-2.22243,0,-0.240944
105.232,-2.29432,0,-0.241063
105.525,-2.36623,0,-0.241075
106.1,-2.50752,0,-0.242145
106.683,-2.65152,0,-0.242057
106.976,-2.72388,0,-0.242056
107.551,-2.86551,0,-0.241884
107.844,-2.93791,0,-0.242165
108.418,-3.07973,0,-0.241635
108.968,-3.21522,0,-0.240926
109.494,-3.34456,0,-0.23983
110.019,-3.47351,0,-0.238185
110.508,-3.59319,0,-0.235309
110.985,-3.70979,0,-0.227634
111.438,-3.81902,0,-0.213144
111.867,-3.91758,0,-0.195682
112.261,-4.00208,0,-0.175502
112.644,-4.07659,0,-0.153711
113.016,-4.14034,0,-0.130844
113.377,-4.19538,0,-0.108606
113.739,-4.24326,0,-0.0782999
114.114,-4.28414,0,-0.0426413
114.478,-4.31236,0,0.00134808
114.83,-4.32607,0,0.0478672
115.17,-4.32491,0,0.0972531
115.522,-4.30735,0,0.150366
115.873,-4.27229,0,0.211245
116.238,-4.21679,0,0.274024
116.594,-4.13625,0,0.34399
116.968,-4.02573,0,0.402577
117.334,-3.89065,0,0.477012
117.723,-3.71303,0,0.549894
118.11,-3.50246,0,0.621901
118.501,-3.24934,0,0.701808
118.88,-2.95807,0,0.77157
119.255,-2.62232,0,0.856515
119.607,-2.24512,0,0.935474
119.938,-1.83353,0,0.999661
120.101,-1.58118,0,1.03692
120.397,-1.11319,0,1.10222
120.546,-0.850212,0,1.1301
120.686,-0.582527,0,1.16028
120.816,-0.310211,0,1.19159
120.938,-0.0337372,0,1.21829
121.056,0.257957,0,1.24221
121.161,0.541031,0,1.26444
121.263,0.838669,0,1.28265
121.359,1.1385,0,1.2981
121.452,1.45211,0,1.3097
121.534,1.74294,0,1.3223
121.614,2.04707,0,1.33276
121.692,2.35211,0,1.33941
121.769,2.67015,0,1.34506
121.837,2.96425,0,1.34922
121.973,3.56579,0,1.35439
122.038,3.86079,0,1.35556
122.103,4.1559,0,1.35562
122.17,4.46329,0,1.35529
122.24,4.77318,0,1.35656
122.305,5.06834,0,1.35634
122.369,5.36348,0,1.35587
122.433,5.65862,0,1.3562
122.497,5.95378,0,1.35598
122.562,6.24889,0,1.35487
122.626,6.54396,0,1.35466
122.691,6.83904,0,1.35455
122.755,7.13411,0,1.35402
122.882,7.71185,0,1.35286
123.007,8.27718,0,1.35169
123.127,8.81776,0,1.34993
123.246,9.34586,0,1.34849
123.365,9.87376,0,1.34744
123.479,10.377,0,1.34673
123.576,10.8233,0,1.34587
123.69,11.3264,0,1.34597
123.805,11.8294,0,1.34533
123.918,12.3202,0,1.34566
124.03,12.8109,0,1.34579
124.145,13.3139,0,1.34552
124.258,13.8046,0,1.34551
124.376,14.3199,0,1.34512
124.488,14.8105,0,1.34481
124.601,15.3012,0,1.34424
124.714,15.7918,0,1.34344
124.831,16.2973,0,1.34307
124.938,16.7633,0,1.34293
125.049,17.2415,0,1.34401
125.157,17.7074,0,1.34675
125.261,18.1485,0,1.35518
125.363,18.59,0,1.37148
125.453,18.9955,0,1.39622
125.535,19.4026,0,1.4331
125.601,19.7871,0,1.47279
125.655,20.1861,0,1.52378
125.689,20.5621,0,1.58444
125.7,20.926,0,1.65522
125.689,21.2907,0,1.73105
125.655,21.6288,0,1.79794
125.593,21.9884,0,1.87932
125.513,22.3057,0,1.95092
125.403,22.6402,0,2.02369
125.268,22.9657,0,2.09484
125.108,23.2797,0,2.17049
124.934,23.5717,0,2.23119
124.726,23.8714,0,2.29903
124.49,24.1655,0,2.36415
124.236,24.4344,0,2.42865
123.945,24.7122,0,2.49669
123.625,24.9764,0,2.5611
123.278,25.2265,0,2.62271
122.893,25.4658,0,2.68102
122.483,25.6864,0,2.73385
122.049,25.8878,0,2.77874
121.594,26.0707,0,2.82059
121.13,26.233,0,2.84742
120.638,26.3876,0,2.86987
120.13,26.5327,0,2.88616
119.595,26.6749,0,2.89411
119.042,26.8075,0,2.89895
118.48,26.9466,0,2.89868
118.187,27.0188,0,2.8979
117.894,27.0911,0,2.89631
117.601,27.164,0,2.89451
117.308,27.2373,0,2.89278
117.002,27.3142,0,2.89147
116.71,27.3884,0,2.88987
116.393,27.4693,0,2.88831
116.088,27.5475,0,2.887
115.771,27.6293,0,2.88577
115.454,27.7116,0,2.88461
115.162,27.7881,0,2.88426
114.846,27.8712,0,2.88418
114.517,27.9575,0,2.88389
114.2,28.0409,0,2.88347
113.896,28.1212,0,2.88382
113.556,28.2111,0,2.88436
113.239,28.2945,0,2.8849
112.91,28.381,0,2.88548
112.582,28.4672,0,2.88636
112.241,28.5563,0,2.88701
111.909,28.6446,0,2.88735
111.568,28.7334,0,2.88815
111.239,28.8187,0,2.88931
110.898,28.9068,0,2.89
110.557,28.9947,0,2.89098
110.216,29.0822,0,2.89184
109.862,29.1727,0,2.89265
109.52,29.2597,0,2.89333
109.191,29.3433,0,2.89447
108.837,29.4328,0,2.89548
108.496,29.5188,0,2.89615
108.142,29.6078,0,2.89664
107.812,29.6904,0,2.89776
107.458,29.7787,0,2.89857
107.104,29.8668,0,2.89902
106.761,29.9516,0,2.90027
106.407,30.039,0,2.90134
106.053,30.1261,0,2.90184
105.698,30.213,0,2.90265
105.344,30.2995,0,2.9035
105.001,30.3828,0,2.90381
104.634,30.4719,0,2.90404
104.292,30.5551,0,2.90428
103.937,30.641,0,2.90465
103.582,30.7268,0,2.90521
102.938,30.8811,0,2.90565
102.596,30.9635,0,2.90615
102.241,31.0487,0,2.9064
101.886,31.1338,0,2.90667
101.555,31.213,0,2.90657
101.2,31.298,0,2.90642
100.846,31.3831,0,2.90603
100.491,31.4683,0,2.90592
100.148,31.5506,0,2.90542
99.8053,31.633,0,2.90515
99.4627,31.7155,0,2.90497
99.0956,31.804,0,2.905
98.753,31.8866,0,2.90454
98.4105,31.9693,0,2.90468
98.0679,32.0518,0,2.90482
97.7253,32.1344,0,2.90468
97.3827,32.217,0,2.90474
97.0401,32.2996,0,2.90479
96.7098,32.3794,0,2.90406
96.3672,32.4623,0,2.90395
96.0369,32.5422,0,2.90406
95.6944,32.6251,0,2.90398
95.3642,32.7051,0,2.90434
95.0216,32.788,0,2.90459
94.6791,32.8707,0,2.90531
94.3365,32.9532,0,2.90594
93.9938,33.0356,0,2.90605
93.6511,33.1178,0,2.90654
93.3207,33.197,0,2.90707
92.9779,33.2789,0,2.90756
92.6743,33.3511,0,2.90806
92.3315,33.4328,0,2.90799
91.9887,33.5144,0,2.90815
91.6581,33.5931,0,2.90832
91.3152,33.6746,0,2.9084
90.9724,33.7561,0,2.90829
90.6295,33.8375,0,2.90824
90.2989,33.9161,0,2.90809
89.9683,33.9947,0,2.90808
89.6377,34.0732,0,2.90805
89.2948,34.1547,0,2.908
88.9642,34.2334,0,2.90782
88.6214,34.315,0,2.90765
88.2786,34.3967,0,2.9073
87.9236,34.4814,0,2.90709
87.5808,34.5632,0,2.90719
87.238,34.645,0,2.90673
86.8953,34.7269,0,2.90622
86.5281,34.8147,0,2.90584
86.1854,34.8969,0,2.90533
85.8305,34.9822,0,2.90484
85.4756,35.0677,0,2.9041
85.1209,35.1535,0,2.90334
84.7539,35.2424,0,2.90286
84.3992,35.3284,0,2.9027
84.0567,35.4115,0,2.90263
83.6898,35.5007,0,2.90213
83.323,35.5901,0,2.90169
82.9806,35.6736,0,2.90233
82.5714,35.773,0,2.90215
82.2168,35.8593,0,2.90226
81.85,35.9487,0,2.90192
81.4832,36.0383,0,2.90118
81.1164,36.1281,0,2.90093
80.7375,36.2209,0,2.90096
80.3707,36.3108,0,2.90081
80.0163,36.3978,0,2.90011
79.6619,36.485,0,2.89989
79.2952,36.5752,0,2.89987
78.9286,36.6655,0,2.89974
78.5864,36.7497,0,2.89951
78.2198,36.8402,0,2.89922
77.8899,36.9217,0,2.89905
77.5478,37.0062,0,2.89922
77.1935,37.0936,0,2.89924
76.8513,37.1781,0,2.89935
76.5214,37.2595,0,2.89926
76.1915,37.341,0,2.89926
75.8616,37.4225,0,2.89966
75.5194,37.5069,0,2.89972
75.2017,37.5853,0,2.8997
74.8596,37.6697,0,2.89989
74.5419,37.748,0,2.89996
74.2241,37.8262,0,2.90036
73.6647,37.964,0,2.90124
73.3469,38.042,0,2.90141
73.0291,38.1199,0,2.9019
72.7235,38.1946,0,2.90222
72.4179,38.2693,0,2.90219
72.1123,38.3439,0,2.90298
71.8066,38.4183,0,2.9034
71.5131,38.4896,0,2.90363
71.2196,38.5608,0,2.90422
70.9138,38.6348,0,2.90472
70.6201,38.7057,0,2.90487
70.0573,38.8413,0,2.90393
69.7636,38.912,0,2.90248
69.2008,39.0476,0,2.89606
68.6505,39.1817,0,2.88459
68.1138,39.3182,0,2.86737
67.6035,39.4562,0,2.84926
67.1078,39.5993,0,2.82747
66.5828,39.7604,0,2.80185
66.0934,39.9241,0,2.7758
65.6083,40.0999,0,2.74541
65.14,40.2846,0,2.7099
64.6664,40.4894,0,2.66622
64.2359,40.6978,0,2.61438
63.7927,40.9364,0,2.56404
63.3617,41.1965,0,2.50654
62.9356,41.4874,0,2.44013
62.5387,41.797,0,2.36858
62.1649,42.134,0,2.29054
61.8264,42.4893,0,2.21132
61.5421,42.8622,0,2.14256
61.2525,43.2738,0,2.06703
60.9937,43.7055,0,1.99171
60.7685,44.1556,0,1.91576
60.584,44.6104,0,1.84605
60.4301,45.0896,0,1.76811
60.3092,45.5911,0,1.69966
60.2268,46.1004,0,1.63012
60.1804,46.6142,0,1.565
60.1672,47.13,0,1.51216
60.187,47.6707,0,1.45939
60.2456,48.1922,0,1.41695
60.3145,48.7163,0,1.37443
60.4081,49.2493,0,1.3339
60.5214,49.7656,0,1.29185
60.6493,50.2525,0,1.24913
60.8057,50.7574,0,1.20535
60.9824,51.2555,0,1.16431
61.1702,51.7226,0,1.11693
61.3781,52.181,0,1.05866
61.6033,52.6171,0,0.99962
61.8582,53.0512,0,0.934579
62.1408,53.4677,0,0.8637
62.4446,53.855,0,0.783468
62.7854,54.2254,0,0.713964
63.1504,54.572,0,0.645327
63.5407,54.8898,0,0.566489
63.9326,55.1638,0,0.495872
64.3648,55.4217,0,0.425624
64.8038,55.641,0,0.345863
65.2574,55.8283,0,0.274995
65.7359,55.9844,0,0.197318
66.2127,56.1004,0,0.123367
66.6842,56.1802,0,0.0557355
67.1728,56.226,0,-0.014562
67.6559,56.2294,0,-0.0750243
68.1587,56.2074,0,-0.135483
68.6468,56.1557,0,-0.18084
69.1311,56.0764,0,-0.218885
69.6239,55.9739,0,-0.246247
70.1251,55.851,0,-0.262898
70.6114,55.7209,0,-0.268824
71.0965,55.586,0,-0.265552
71.5813,55.4506,0,-0.255499
72.0549,55.3217,0,-0.236691
72.5177,55.2011,0,-0.214575
72.9586,55.0967,0,-0.186229
73.3837,55.0082,0,-0.150572
73.8171,54.9296,0,-0.110594
74.2531,54.867,0,-0.0607803
74.6663,54.8251,0,-0.00690169
75.0685,54.8052,0,0.0572799
75.4712,54.8081,0,0.126413
75.8477,54.8363,0,0.202079
76.2211,54.8916,0,0.273375
76.5896,54.9735,0,0.34901
76.9391,55.0785,0,0.426048
77.2912,55.2144,0,0.504196
77.6203,55.3719,0,0.576925
77.9399,55.559,0,0.645355
78.2429,55.7625,0,0.716477
78.5404,55.9949,0,0.789561
78.8389,56.2651,0,0.857539
79.1262,56.5649,0,0.925244
79.3987,56.8947,0,0.999003
79.6531,57.2541,0,1.06365
79.9058,57.6748,0,1.12282
80.1272,58.0987,0,1.17223
80.3425,58.5814,0,1.21412
80.534,59.074,0,1.25103
80.7124,59.5654,0,1.27527
80.8843,60.1182,0,1.29081
81.0466,60.674,0,1.30022
81.1325,60.9766,0,1.30461
81.2134,61.2677,0,1.30988
81.2961,61.5713,0,1.31369
81.3806,61.8874,0,1.31696
81.4637,62.2039,0,1.32001
81.5454,62.5208,0,1.32279
81.6323,62.8623,0,1.32373
81.7187,63.2039,0,1.32494
81.8048,63.5457,0,1.32592
81.8905,63.8875,0,1.32651
81.9755,64.2295,0,1.32906
82.0606,64.5715,0,1.32854
82.1514,64.9379,0,1.32931
82.242,65.3045,0,1.3298
82.3322,65.6711,0,1.33042
82.4187,66.0257,0,1.33335
82.5075,66.3927,0,1.33367
82.5902,66.7456,0,1.33395
82.6846,67.1372,0,1.33497
82.77,67.492,0,1.33595
82.8638,67.8837,0,1.33636
82.9545,68.2632,0,1.33693
83.0478,68.655,0,1.33799
83.1379,69.0346,0,1.3387
83.2308,69.4264,0,1.33898
83.3234,69.8184,0,1.33976
83.4128,70.1982,0,1.3406
83.5049,70.5903,0,1.34077
83.5968,70.9824,0,1.34121
83.6886,71.3745,0,1.3417
83.7802,71.7667,0,1.34217
83.8687,72.1467,0,1.3428
83.9598,72.539,0,1.34282
84.051,72.9313,0,1.34281
84.142,73.3236,0,1.343
84.2301,73.7037,0,1.3431
84.3182,74.0838,0,1.34321
84.4062,74.4639,0,1.34311
84.4971,74.8562,0,1.34275
84.576,75.2006,0,1.34256
84.6641,75.5807,0,1.34247
84.7523,75.9607,0,1.34205
84.8407,76.3408,0,1.34124
84.9292,76.7207,0,1.34085
85.0152,77.0884,0,1.34022
85.1042,77.4683,0,1.33934
85.1936,77.8481,0,1.33844
85.2774,78.2033,0,1.33803
85.3672,78.583,0,1.33709
85.4545,78.9503,0,1.33625
85.5422,79.3176,0,1.3352
85.6301,79.6848,0,1.3345
85.7154,80.0397,0,1.33392
85.8068,80.419,0,1.33313
85.8954,80.786,0,1.33286
85.9842,81.153,0,1.33233
86.0673,81.4954,0,1.33155
86.1566,81.8623,0,1.33097
86.2461,82.2291,0,1.33029
86.3358,82.5959,0,1.32971
86.4228,82.9504,0,1.32914
86.5079,83.2953,0,1.32827
86.5954,83.6497,0,1.32729
86.6863,84.0162,0,1.3263
86.7714,84.3581,0,1.32577
86.8566,84.7001,0,1.32523
86.9452,85.0542,0,1.32427
87.031,85.396,0,1.32316
87.1203,85.7499,0,1.32234
87.2067,86.0915,0,1.32147
87.2872,86.4087,0,1.32112
87.3709,86.738,0,1.32057
87.458,87.0795,0,1.31961
87.5422,87.4087,0,1.3191
87.6236,87.7257,0,1.31876
87.7082,88.0548,0,1.31836
87.7866,88.3595,0,1.31829
87.8682,88.6765,0,1.31851
87.9435,88.969,0,1.31831
88.0222,89.2736,0,1.31813
88.1704,89.8463,0,1.32008
88.312,90.3935,0,1.32601
88.4491,90.93,0,1.33652
88.5769,91.4429,0,1.35412
88.6952,91.9452,0,1.37952
88.8002,92.4375,0,1.41532
88.8896,92.933,0,1.45547
88.9583,93.4189,0,1.49949
89.0074,93.9073,0,1.53916
89.0329,94.3722,0,1.58351
89.0389,94.8253,0,1.62684
89.0255,95.2907,0,1.6642
88.9988,95.7537,0,1.70595
88.9529,96.1918,0,1.75302
88.888,96.6274,0,1.80264
88.8032,97.0468,0,1.86061
88.7059,97.4246,0,1.92125
88.5842,97.8085,0,1.97594
88.45,98.1613,0,2.04237
88.289,98.5166,0,2.09997
88.1064,98.8613,0,2.15808
87.9111,99.1845,0,2.21224
87.6969,99.4953,0,2.27573
87.4495,99.813,0,2.33276
87.1775,100.104,0,2.38627
86.8765,100.408,0,2.45221
86.5396,100.711,0,2.51035
86.1944,100.984,0,2.57698
85.812,101.25,0,2.63346
85.4029,101.497,0,2.69706
84.9778,101.716,0,2.74812
84.5059,101.925,0,2.79837
84.0471,102.099,0,2.83128
83.5697,102.259,0,2.85962
83.0639,102.414,0,2.87754
82.5543,102.554,0,2.88656
82.0185,102.694,0,2.89019
81.5064,102.825,0,2.89003
80.9698,102.962,0,2.88912
80.4455,103.096,0,2.88476
79.9217,103.232,0,2.87966
79.3865,103.374,0,2.87495
78.8763,103.513,0,2.86887
78.3547,103.657,0,2.86456
77.858,103.797,0,2.85871
77.3743,103.936,0,2.85386
76.9044,104.074,0,2.84901
76.4221,104.218,0,2.84491
75.9646,104.358,0,2.84287
75.5075,104.498,0,2.84252
75.0988,104.625,0,2.84415
74.6902,104.752,0,2.8517
74.3172,104.867,0,2.85895
73.9197,104.987,0,2.87737
73.5093,105.108,0,2.90329
73.1081,105.215,0,2.94719
72.6649,105.318,0,2.99364
72.2315,105.396,0,3.03945
71.7823,105.455,0,3.09263
71.3181,105.491,0,3.13307
70.8652,105.504,0,-3.09857
70.3997,105.495,0,-3.06563
69.9098,105.464,0,-3.03807
69.4463,105.42,0,-3.01975
68.9464,105.36,0,-3.01547
68.4473,105.294,0,-3.02239
67.9357,105.227,0,-3.0435
67.4267,105.166,0,-3.0757
66.9128,105.119,0,-3.11839
66.385,105.091,0,3.11105
65.8564,105.092,0,3.04733
65.3289,105.125,0,2.97782
64.8298,105.189,0,2.91238
64.3114,105.292,0,2.84169
63.8015,105.431,0,2.78492
63.3135,105.599,0,2.73819
62.8238,105.798,0,2.70523
62.3422,106.016,0,2.68963
61.8965,106.24,0,2.68105
61.4241,106.477,0,2.68982
60.9739,106.703,0,2.7113
60.4981,106.933,0,2.7435
60.0272,107.144,0,2.78908
59.5716,107.326,0,2.83521
59.0957,107.49,0,2.89369
58.6118,107.629,0,2.94409
58.1208,107.74,0,2.99206
57.6122,107.827,0,3.02855
57.1003,107.892,0,3.05668
56.6046,107.928,0,3.07066
56.0774,107.965,0,3.07462
55.5373,108,0,3.06941
55.0097,108.034,0,3.0554
54.47,108.074,0,3.03417
53.9312,108.124,0,3.00772
53.3938,108.187,0,2.97578
52.846,108.269,0,2.94322
52.3138,108.367,0,2.90273
51.7608,108.489,0,2.86788
51.225,108.629,0,2.82315
50.6922,108.791,0,2.78671
50.1695,108.974,0,2.74617
49.6548,109.178,0,2.71355
49.1483,109.402,0,2.68622
48.6608,109.637,0,2.66962
48.1782,109.882,0,2.66323
47.7092,110.126,0,2.66421
47.2407,110.371,0,2.67077
46.8052,110.597,0,2.68718
46.356,110.825,0,2.70688
45.903,111.044,0,2.73503
45.4333,111.26,0,2.76876
44.9918,111.444,0,2.80714
44.5438,111.611,0,2.85076
44.1017,111.758,0,2.89027
43.6541,111.886,0,2.94128
43.2259,111.989,0,2.99149
42.7806,112.073,0,3.05192
42.3815,112.126,0,3.10816
41.98,112.157,0,-3.11597
41.6025,112.165,0,-3.05076
41.2379,112.15,0,-2.98604
40.8999,112.1,0,-2.92149
40.5401,112.039,0,-2.86116
40.185,111.956,0,-2.79377
39.8359,111.849,0,-2.73632
39.5058,111.726,0,-2.66678
39.1614,111.571,0,-2.60169
38.8273,111.396,0,-2.5323
38.5071,111.196,0,-2.46091
38.181,110.96,0,-2.38869
37.882,110.709,0,-2.32397
37.5931,110.429,0,-2.24396
37.3112,110.12,0,-2.18085
37.0493,109.781,0,-2.10744
36.8087,109.412,0,-2.04373
36.5769,108.994,0,-1.98585
36.3712,108.562,0,-1.94027
36.1771,108.098,0,-1.90697
36.0015,107.613,0,-1.86696
35.8365,107.097,0,-1.84418
35.6908,106.589,0,-1.82828
35.6119,106.298,0,-1.82366
35.4689,105.75,0,-1.81596
35.395,105.457,0,-1.81368
35.3221,105.164,0,-1.81028
35.1884,104.583,0,-1.8087
35.1141,104.277,0,-1.80821
35.0399,103.971,0,-1.80752
34.966,103.666,0,-1.80678
34.8923,103.36,0,-1.80632
34.8158,103.041,0,-1.80576
34.7396,102.723,0,-1.80556
34.6606,102.393,0,-1.80528
34.5847,102.074,0,-1.80491
34.503,101.732,0,-1.80535
34.4271,101.413,0,-1.80534
34.3453,101.07,0,-1.80546
34.2693,100.752,0,-1.80602
34.1903,100.422,0,-1.80609
34.1082,100.079,0,-1.80643
34.029,99.7486,0,-1.80695
33.9467,99.406,0,-1.80717
33.8643,99.0634,0,-1.80748
33.7818,98.7207,0,-1.8079
33.6993,98.3781,0,-1.80833
33.6165,98.0356,0,-1.80898
33.5339,97.6893,0,-1.80954
33.4479,97.3346,0,-1.81047
33.3674,97.0044,0,-1.81135
33.2807,96.6499,0,-1.8125
33.1935,96.2955,0,-1.81366
33.106,95.9411,0,-1.81468
33.015,95.5747,0,-1.81576
32.9298,95.2327,0,-1.81631
32.8384,94.8664,0,-1.8172
32.7495,94.5124,0,-1.81836
32.6635,94.1706,0,-1.81909
32.5741,93.8167,0,-1.81959
32.4814,93.4507,0,-1.8206
32.3945,93.1092,0,-1.82157
32.3011,92.7433,0,-1.82226
32.2137,92.402,0,-1.82318
32.1197,92.0363,0,-1.82394
32.0317,91.695,0,-1.8248
31.9402,91.3417,0,-1.82559
31.8548,91.0128,0,-1.82653
31.7628,90.6596,0,-1.82705
31.6705,90.3064,0,-1.82783
31.5853,89.9821,0,-1.82791
31.4959,89.6413,0,-1.82752
31.4064,89.3004,0,-1.82774
31.3137,88.9474,0,-1.8273
31.2243,88.6065,0,-1.82666
31.1383,88.2777,0,-1.82643
31.0491,87.9368,0,-1.82653
30.9599,87.5959,0,-1.82609
30.8709,87.2549,0,-1.82589
30.7851,86.9261,0,-1.82566
30.6962,86.5851,0,-1.82492
30.6108,86.2562,0,-1.82451
30.5222,85.9151,0,-1.82451
30.44,85.5983,0,-1.8239
30.3518,85.2571,0,-1.82324
30.2701,84.9403,0,-1.8227
30.1854,84.6112,0,-1.82189
30.1041,84.2942,0,-1.82135
30.0167,83.9528,0,-1.8209
29.9356,83.6358,0,-1.82065
29.8547,83.3187,0,-1.82031
29.7738,83.0016,0,-1.81987
29.6878,82.6628,0,-1.81944
29.6072,82.3456,0,-1.81922
29.5298,82.0407,0,-1.81896
29.4493,81.7235,0,-1.81871
29.3689,81.4063,0,-1.81862
29.2886,81.0891,0,-1.81818
29.2115,80.784,0,-1.8178
29.1314,80.4667,0,-1.81775
29.0545,80.1616,0,-1.81745
28.9776,79.8565,0,-1.81713
28.9038,79.5636,0,-1.81719
28.827,79.2585,0,-1.81681
28.7504,78.9533,0,-1.81652
28.6768,78.6603,0,-1.81641
28.5393,78.1109,0,-1.8152
28.4661,77.8179,0,-1.81543
28.3258,77.2561,0,-1.81474
28.192,76.7188,0,-1.81417
28.0662,76.2116,0,-1.81363
27.9392,75.6985,0,-1.81281
