x, y, z, theta
100.215,-7.39347,0,-0.0149841
100.517,-7.39799,0,-0.0149494
100.819,-7.40248,0,-0.0147846
101.209,-7.40816,0,-0.0143667
101.562,-7.41312,0,-0.0143253
102.002,-7.4183,0,-0.018223
102.355,-7.42333,0,-0.0227841
102.782,-7.43138,0,-0.0279085
103.202,-7.4416,0,-0.0340019
103.692,-7.45656,0,-0.0405922
104.195,-7.47531,0,-0.047707
104.736,-7.49919,0,-0.0547221
105.289,-7.52776,0,-0.0624546
105.855,-7.56117,0,-0.0700561
106.156,-7.58083,0,-0.0739572
106.457,-7.60152,0,-0.0767589
107.06,-7.64627,0,-0.0832034
107.373,-7.67126,0,-0.0857579
107.674,-7.69632,0,-0.0879621
107.975,-7.72246,0,-0.0900988
108.289,-7.75024,0,-0.0908057
108.602,-7.77847,0,-0.091396
108.903,-7.80591,0,-0.0916649
109.204,-7.8336,0,-0.0919691
109.752,-7.88548,0,-0.0916181
110.328,-7.93858,0,-0.0914269
110.88,-7.98949,0,-0.090823
111.431,-8.04054,0,-0.0882692
111.97,-8.08954,0,-0.0826218
112.484,-8.13472,0,-0.0746599
112.986,-8.17615,0,-0.061753
113.488,-8.21262,0,-0.0427305
113.965,-8.24051,0,-0.0189212
114.443,-8.25833,0,0.0107383
114.909,-8.26488,0,0.0519084
115.376,-8.2556,0,0.10143
115.816,-8.22775,0,0.162277
116.266,-8.1741,0,0.234296
116.736,-8.08662,0,0.310369
117.197,-7.96288,0,0.398583
117.647,-7.80144,0,0.490483
118.102,-7.58603,0,0.586155
118.537,-7.33208,0,0.67362
118.965,-7.0219,0,0.769954
119.34,-6.68703,0,0.872207
119.717,-6.28143,0,0.960361
120.028,-5.86473,0,1.04741
120.303,-5.42831,0,1.13273
120.552,-4.9481,0,1.20785
120.766,-4.43777,0,1.27805
120.941,-3.91245,0,1.33638
121.086,-3.36496,0,1.38615
121.202,-2.79782,0,1.42069
121.293,-2.23895,0,1.44766
121.369,-1.66493,0,1.46785
121.402,-1.3647,0,1.47499
121.459,-0.788589,0,1.48272
121.495,-0.223175,0,1.48846
121.52,0.0778503,0,1.48941
121.567,0.654907,0,1.49032
121.613,1.23198,0,1.48992
121.637,1.53307,0,1.48983
121.684,2.11014,0,1.48875
121.709,2.41121,0,1.48862
121.733,2.71227,0,1.48809
121.782,3.30182,0,1.48645
121.83,3.87875,0,1.48524
121.877,4.43053,0,1.48268
121.922,4.94463,0,1.48052
121.964,5.42101,0,1.47785
122.008,5.87183,0,1.47301
122.051,6.33548,0,1.46588
122.094,6.7739,0,1.45476
122.138,7.19948,0,1.43859
122.188,7.61183,0,1.41829
122.248,8.04813,0,1.39668
122.316,8.47058,0,1.37613
122.39,8.87923,0,1.35435
122.47,9.27399,0,1.33402
122.552,9.64252,0,1.30907
122.639,9.99707,0,1.28497
122.727,10.3212,0,1.25738
122.816,10.6229,0,1.23057
122.908,10.9107,0,1.19987
123.047,11.3022,0,1.14544
123.189,11.6519,0,1.08259
123.345,11.9816,0,1.00578
123.532,12.31,0,0.920698
123.76,12.6417,0,0.83403
124.02,12.9603,0,0.746522
124.23,13.1775,0,0.690359
124.453,13.3819,0,0.636496
124.707,13.5881,0,0.588742
124.982,13.7869,0,0.536562
125.299,13.9926,0,0.492391
125.635,14.1899,0,0.43909
126.015,14.3866,0,0.389813
126.417,14.5668,0,0.334099
126.864,14.7383,0,0.28216
127.331,14.8891,0,0.229937
127.806,15.0095,0,0.175766
128.336,15.118,0,0.128685
128.883,15.2017,0,0.0871876
129.446,15.2609,0,0.0515549
130.024,15.2985,0,0.0143654
130.326,15.3096,0,-0.00115603
130.628,15.3155,0,-0.0146061
130.943,15.3166,0,-0.028198
131.245,15.3129,0,-0.0420165
131.559,15.3047,0,-0.0539169
131.874,15.293,0,-0.0637575
132.213,15.2759,0,-0.074758
132.539,15.255,0,-0.0842643
132.878,15.229,0,-0.0930808
133.217,15.1995,0,-0.0988462
133.568,15.1662,0,-0.102795
133.918,15.1308,0,-0.105558
134.269,15.0941,0,-0.106952
134.612,15.0491,0,-0.108365
134.975,15.0098,0,-0.108939
135.338,14.9703,0,-0.109404
135.713,14.9293,0,-0.109356
136.088,14.8882,0,-0.110107
136.476,14.8455,0,-0.110548
136.851,14.8041,0,-0.110618
137.252,14.7598,0,-0.111082
137.627,14.7181,0,-0.111338
138.027,14.6734,0,-0.111415
138.427,14.6286,0,-0.111409
138.828,14.5839,0,-0.111039
139.24,14.5378,0,-0.110691
139.653,14.4917,0,-0.110285
140.053,14.4472,0,-0.109687
140.466,14.4016,0,-0.108882
140.879,14.3564,0,-0.108047
141.292,14.3113,0,-0.107367
141.692,14.268,0,-0.106249
142.118,14.2224,0,-0.105108
142.518,14.18,0,-0.10404
142.944,14.1354,0,-0.10301
143.323,14.0942,0,-0.101815
143.736,14.052,0,-0.101087
144.149,14.0101,0,-0.101144
144.562,13.968,0,-0.101307
144.976,13.9259,0,-0.101081
145.401,13.8827,0,-0.100686
145.815,13.841,0,-0.100541
146.228,13.7992,0,-0.100622
146.641,13.7573,0,-0.0999852
147.067,13.7146,0,-0.0986374
147.48,13.6736,0,-0.0980318
147.881,13.6339,0,-0.0977601
148.307,13.592,0,-0.096527
148.708,13.5529,0,-0.095904
149.134,13.5117,0,-0.0953927
149.534,13.4733,0,-0.093919
149.96,13.4329,0,-0.0937206
150.361,13.3949,0,-0.0932438
150.775,13.3561,0,-0.0921029
151.189,13.3177,0,-0.0917142
151.602,13.2794,0,-0.0913552
152.016,13.2414,0,-0.0909438
152.416,13.2046,0,-0.0913116
152.83,13.1666,0,-0.0913888
153.243,13.1288,0,-0.0910208
153.645,13.092,0,-0.0915361
154.071,13.0528,0,-0.0914885
154.459,13.0173,0,-0.0909356
154.873,12.9796,0,-0.0909904
155.286,12.9419,0,-0.090733
155.688,12.9055,0,-0.0901971
156.101,12.8682,0,-0.090052
156.515,12.8307,0,-0.0903577
156.916,12.7944,0,-0.0904654
157.317,12.758,0,-0.0905241
157.718,12.7217,0,-0.0905211
158.119,12.6852,0,-0.09106
158.533,12.6475,0,-0.0912887
158.921,12.612,0,-0.0909655
159.322,12.5755,0,-0.0912573
159.724,12.5388,0,-0.0915849
160.112,12.5031,0,-0.0917032
160.501,12.4674,0,-0.091922
160.877,12.4328,0,-0.0920491
161.254,12.398,0,-0.091996
161.63,12.3634,0,-0.09165
162.006,12.3288,0,-0.0918177
162.382,12.2943,0,-0.0914354
162.733,12.2622,0,-0.0911194
163.084,12.2301,0,-0.0910179
163.447,12.197,0,-0.0909612
163.798,12.165,0,-0.0907096
164.136,12.1343,0,-0.0903636
164.475,12.1037,0,-0.0902147
164.813,12.073,0,-0.0901909
165.139,12.0437,0,-0.0896852
165.465,12.0143,0,-0.0896764
165.766,11.9873,0,-0.0896043
166.067,11.9603,0,-0.0894966
166.368,11.9333,0,-0.0895423
166.669,11.9063,0,-0.0895277
167.22,11.8567,0,-0.0896755
167.759,11.8083,0,-0.090169
168.245,11.7643,0,-0.0915047
168.747,11.7191,0,-0.0941124
169.21,11.6776,0,-0.102619
169.662,11.6363,0,-0.117763
170.087,11.5937,0,-0.1421
170.5,11.5452,0,-0.175421
170.886,11.4888,0,-0.214479
171.245,11.4239,0,-0.263053
171.601,11.3441,0,-0.312876
171.941,11.2504,0,-0.363468
172.275,11.1394,0,-0.418569
172.647,10.9989,0,-0.485213
173.012,10.8298,0,-0.547999
173.387,10.6239,0,-0.624492
173.768,10.3778,0,-0.697991
174.158,10.081,0,-0.776352
174.532,9.74416,0,-0.861938
174.903,9.35004,0,-0.942518
175.232,8.93674,0,-1.03064
175.538,8.47528,0,-1.11852
175.806,7.97668,0,-1.2074
176.029,7.45622,0,-1.28873
176.184,6.92018,0,-1.37732
176.318,6.35699,0,-1.44865
176.405,5.78477,0,-1.51277
176.452,5.20787,0,-1.56714
176.468,4.62918,0,-1.61541
176.455,4.03781,0,-1.65845
176.414,3.44778,0,-1.70509
176.344,2.86041,0,-1.7414
176.299,2.56175,0,-1.7566
176.246,2.25151,0,-1.7678
176.191,1.95451,0,-1.77992
176.132,1.65828,0,-1.78973
176.067,1.35046,0,-1.79869
175.999,1.04335,0,-1.80618
175.928,0.736832,0,-1.81334
175.846,0.440292,0,-1.81855
175.768,0.12265,0,-1.82267
175.687,-0.194534,0,-1.82611
175.609,-0.499191,0,-1.82913
175.519,-0.840073,0,-1.8306
175.436,-1.15648,0,-1.83155
175.352,-1.47275,0,-1.83286
175.264,-1.80107,0,-1.83399
175.176,-2.1292,0,-1.83506
175.087,-2.45724,0,-1.83571
175.001,-2.77307,0,-1.83589
174.909,-3.11313,0,-1.83539
174.823,-3.42879,0,-1.83384
174.736,-3.74445,0,-1.83066
174.653,-4.04797,0,-1.82553
174.568,-4.3638,0,-1.81753
174.487,-4.66785,0,-1.80776
174.343,-5.22859,0,-1.78283
174.216,-5.76776,0,-1.74606
174.109,-6.32101,0,-1.699
174.025,-6.85562,0,-1.65165
173.97,-7.35597,0,-1.59409
173.94,-7.88362,0,-1.53496
173.94,-8.37437,0,-1.45978
173.974,-8.88914,0,-1.38542
174.041,-9.37526,0,-1.30394
174.148,-9.85405,0,-1.22599
174.296,-10.335,0,-1.1425
174.471,-10.7666,0,-1.06553
174.688,-11.2068,0,-0.995115
174.936,-11.6051,0,-0.918273
175.21,-11.9967,0,-0.850743
175.51,-12.3689,0,-0.784999
175.835,-12.7199,0,-0.718188
176.183,-13.0478,0,-0.645911
176.572,-13.3666,0,-0.58131
176.992,-13.6663,0,-0.511525
177.433,-13.9342,0,-0.440461
177.914,-14.1821,0,-0.368613
178.401,-14.3869,0,-0.296409
178.925,-14.5661,0,-0.236099
179.455,-14.6984,0,-0.183729
180.034,-14.8172,0,-0.144003
180.332,-14.8663,0,-0.125123
180.918,-14.9458,0,-0.10284
181.231,-14.9814,0,-0.0953771
181.531,-15.0119,0,-0.0896712
181.845,-15.0408,0,-0.0860609
182.158,-15.0679,0,-0.0846173
182.472,-15.0941,0,-0.0852233
182.798,-15.1215,0,-0.0866106
183.124,-15.1487,0,-0.0860269
183.462,-15.1773,0,-0.0871832
183.801,-15.2065,0,-0.0882593
184.14,-15.2362,0,-0.0887126
184.466,-15.2648,0,-0.0885256
184.804,-15.2946,0,-0.0888851
185.155,-15.3257,0,-0.0891796
185.506,-15.3569,0,-0.0895516
185.857,-15.3881,0,-0.0898817
186.221,-15.4206,0,-0.0901375
186.564,-15.4491,0,-0.0906985
186.927,-15.4818,0,-0.0908171
187.303,-15.5159,0,-0.0914227
187.679,-15.5501,0,-0.0919483
188.055,-15.5845,0,-0.0920235
188.419,-15.6178,0,-0.0922369
188.795,-15.6523,0,-0.092743
189.171,-15.6871,0,-0.0928657
189.572,-15.7242,0,-0.093021
189.96,-15.7602,0,-0.0932164
190.349,-15.7963,0,-0.0935256
190.75,-15.8338,0,-0.0939847
191.126,-15.8691,0,-0.0942486
191.527,-15.9068,0,-0.0942869
191.928,-15.9446,0,-0.0944873
192.354,-15.9849,0,-0.0943614
192.755,-16.0227,0,-0.0939765
193.155,-16.0605,0,-0.0935657
193.582,-16.1004,0,-0.0931617
193.983,-16.1378,0,-0.0925278
194.409,-16.1774,0,-0.0920745
194.822,-16.2156,0,-0.0916988
195.22,-16.2527,0,-0.0910165
195.634,-16.2905,0,-0.0905767
196.06,-16.3293,0,-0.0900515
196.499,-16.3689,0,-0.0894087
196.925,-16.4072,0,-0.0889773
197.351,-16.4452,0,-0.088469
197.777,-16.483,0,-0.0880369
198.229,-16.5228,0,-0.0875656
198.655,-16.5601,0,-0.0870726
199.106,-16.5995,0,-0.0865761
199.533,-16.6365,0,-0.0863517
199.984,-16.6756,0,-0.0858559
200.423,-16.7133,0,-0.0852725
200.862,-16.7508,0,-0.0848908
201.301,-16.7882,0,-0.0843947
201.752,-16.8265,0,-0.0838271
202.204,-16.8645,0,-0.0832884
202.655,-16.9024,0,-0.0828442
203.107,-16.9398,0,-0.0818324
203.559,-16.9769,0,-0.0808574
203.998,-17.0126,0,-0.0802379
204.449,-17.049,0,-0.0794955
204.875,-17.0825,0,-0.078226
205.314,-17.1172,0,-0.0779897
205.766,-17.1528,0,-0.0775359
206.218,-17.188,0,-0.0767471
206.657,-17.2219,0,-0.0760698
207.096,-17.2554,0,-0.0751419
207.523,-17.2878,0,-0.0748991
207.962,-17.3209,0,-0.0739917
208.401,-17.3536,0,-0.0735147
208.828,-17.3853,0,-0.0735456
209.267,-17.4178,0,-0.0727279
209.707,-17.4499,0,-0.0722513
210.121,-17.4802,0,-0.0725728
210.548,-17.5112,0,-0.0711523
210.974,-17.5416,0,-0.0706938
211.401,-17.572,0,-0.0706352
211.828,-17.6018,0,-0.0693744
212.243,-17.6305,0,-0.0703102
212.669,-17.6604,0,-0.0712907
213.084,-17.6898,0,-0.0717831
213.511,-17.7203,0,-0.0726402
213.912,-17.7495,0,-0.0738803
214.336,-17.7802,0,-0.0741772
214.763,-17.8116,0,-0.0750497
215.177,-17.8426,0,-0.0758706
215.604,-17.8746,0,-0.0762954
216.018,-17.9061,0,-0.0769834
216.432,-17.9378,0,-0.0773907
216.846,-17.9696,0,-0.0781106
217.248,-18.0008,0,-0.0786228
217.674,-18.0341,0,-0.0784841
218.089,-18.0663,0,-0.0786337
218.503,-18.0988,0,-0.0792459
218.917,-18.1316,0,-0.0793077
219.318,-18.1633,0,-0.0790926
219.72,-18.195,0,-0.0793362
220.121,-18.2268,0,-0.0793829
220.535,-18.2596,0,-0.0796236
220.936,-18.2916,0,-0.0800577
221.338,-18.3237,0,-0.0798547
221.739,-18.3556,0,-0.0799253
222.128,-18.3867,0,-0.0802872
222.517,-18.4179,0,-0.0805627
222.894,-18.4483,0,-0.0809514
223.282,-18.4798,0,-0.0809129
223.658,-18.5104,0,-0.0809522
224.034,-18.5409,0,-0.0804376
224.411,-18.5712,0,-0.0800269
224.787,-18.6015,0,-0.0802871
225.163,-18.6318,0,-0.0798789
225.54,-18.6619,0,-0.0795685
225.904,-18.6908,0,-0.0789196
226.268,-18.7197,0,-0.0783388
226.619,-18.7475,0,-0.0780055
226.97,-18.7751,0,-0.0771977
227.322,-18.8025,0,-0.0762638
227.673,-18.8297,0,-0.0752085
228.024,-18.8565,0,-0.0741677
228.376,-18.8831,0,-0.0732517
228.715,-18.9084,0,-0.0713834
229.053,-18.9331,0,-0.0686282
229.38,-18.9566,0,-0.0659514
229.719,-18.9806,0,-0.0626065
230.058,-19.0038,0,-0.057186
230.372,-19.0241,0,-0.0508009
230.698,-19.044,0,-0.0430554
231.003,-19.0605,0,-0.0331593
231.305,-19.0755,0,-0.0200655
231.607,-19.0874,0,-0.00716422
231.909,-19.0964,0,0.0101462
232.5,-19.1016,0,0.0471619
233.041,-19.0885,0,0.0914417
233.581,-19.0526,0,0.140501
234.106,-18.9934,0,0.19461
234.616,-18.9115,0,0.259226
235.107,-18.8019,0,0.332624
235.577,-18.6607,0,0.415033
236.048,-18.482,0,0.497239
236.501,-18.2628,0,0.59316
236.956,-18.0007,0,0.687445
237.351,-17.709,0,0.780949
237.725,-17.3723,0,0.87656
238.077,-16.9949,0,0.952889
238.382,-16.5952,0,1.04926
238.664,-16.1479,0,1.11796
238.904,-15.6912,0,1.18503
239.118,-15.2081,0,1.23357
239.305,-14.7005,0,1.28662
239.475,-14.1601,0,1.31818
239.622,-13.6131,0,1.34598
239.746,-13.0495,0,1.36354
239.811,-12.7545,0,1.37014
239.873,-12.459,0,1.37616
239.933,-12.1629,0,1.38103
239.994,-11.8543,0,1.38476
240.052,-11.5577,0,1.38942
240.108,-11.2609,0,1.39421
240.165,-10.9515,0,1.39853
240.222,-10.6294,0,1.40361
240.274,-10.3318,0,1.40789
240.329,-10.0091,0,1.41179
240.38,-9.6987,0,1.41484
240.43,-9.38803,0,1.41857
240.477,-9.08966,0,1.42176
240.525,-8.77872,0,1.42553
240.57,-8.48001,0,1.42944
240.616,-8.1687,0,1.43449
240.66,-7.85718,0,1.43866
240.703,-7.54553,0,1.44282
240.743,-7.24615,0,1.44595
240.782,-6.94662,0,1.45057
240.853,-6.36737,0,1.45803
240.919,-5.79227,0,1.46367
240.978,-5.25427,0,1.4676
241.03,-4.75357,0,1.47062
241.076,-4.3028,0,1.47216
241.121,-3.85187,0,1.47298
241.16,-3.45105,0,1.47247
241.196,-3.0752,0,1.47074
241.229,-2.7244,0,1.46526
241.263,-2.37363,0,1.45399
241.303,-1.9855,0,1.43641
241.347,-1.60333,0,1.41108
241.396,-1.24167,0,1.38218
241.453,-0.893799,0,1.35044
241.508,-0.596954,0,1.31643
241.604,-0.179962,0,1.25771
241.726,0.243408,0,1.19409
241.882,0.681854,0,1.12094
242.015,0.994537,0,1.06325
242.177,1.32187,0,1.00163
242.371,1.66086,0,0.930634
242.6,2.00665,0,0.860985
242.855,2.33481,0,0.77337
243.151,2.66101,0,0.690873
243.475,2.95856,0,0.583848
243.839,3.22855,0,0.485771
244.238,3.46875,0,0.387864
244.647,3.66211,0,0.307199
245.084,3.8223,0,0.233189
245.545,3.95099,0,0.170356
246.026,4.05011,0,0.105989
246.489,4.10147,0,0.0498462
247.003,4.14218,0,0.00355333
247.494,4.15448,0,-0.0367403
247.997,4.14474,0,-0.0664134
248.487,4.11786,0,-0.0882386
248.976,4.07819,0,-0.0997792
249.452,4.03156,0,-0.108158
249.928,3.97983,0,-0.110428
250.403,3.92642,0,-0.107632
250.853,3.87497,0,-0.0997644
251.303,3.82541,0,-0.085188
251.729,3.78259,0,-0.0660243
252.168,3.74603,0,-0.0433465
252.595,3.71933,0,-0.0130879
253.035,3.70264,0,0.0252419
253.475,3.69958,0,0.0772231
253.953,3.71777,0,0.133831
254.417,3.76025,0,0.208328
254.877,3.83478,0,0.291016
255.329,3.94531,0,0.37749
255.794,4.10236,0,0.472402
256.243,4.30017,0,0.562398
256.677,4.54691,0,0.656681
257.102,4.83926,0,0.75541
257.496,5.17181,0,0.852321
257.865,5.55002,0,0.943071
258.209,5.9834,0,1.04406
258.502,6.43845,0,1.12603
258.765,6.94006,0,1.20134
258.887,7.21619,0,1.23395
259.097,7.76901,0,1.28746
259.19,8.0563,0,1.31411
259.279,8.35822,0,1.33567
259.359,8.66248,0,1.35622
259.43,8.95615,0,1.37036
259.503,9.28806,0,1.38561
259.567,9.60895,0,1.39797
259.624,9.93298,0,1.40628
259.682,10.2677,0,1.4145
259.74,10.6154,0,1.42264
259.792,10.9512,0,1.4286
259.844,11.2997,0,1.43347
259.893,11.6487,0,1.43782
259.942,12.0103,0,1.44093
259.99,12.3722,0,1.44291
260.038,12.7467,0,1.44454
260.084,13.1088,0,1.44546
260.132,13.4833,0,1.44652
260.179,13.858,0,1.44817
260.227,14.2451,0,1.4488
260.273,14.6199,0,1.44981
260.321,15.0071,0,1.45103
260.368,15.3944,0,1.45202
260.414,15.7819,0,1.45411
260.46,16.1693,0,1.4559
260.508,16.5819,0,1.45736
260.554,16.982,0,1.45953
260.601,17.3947,0,1.46206
260.645,17.795,0,1.46308
260.679,18.1721,0,1.46477
260.725,18.5975,0,1.4664
260.769,19.0106,0,1.46789
260.813,19.4361,0,1.47005
260.855,19.8494,0,1.4712
260.897,20.2626,0,1.47224
260.94,20.6884,0,1.4737
260.98,21.1017,0,1.47551
261.02,21.5152,0,1.47633
261.059,21.9161,0,1.47754
261.096,22.317,0,1.4792
261.134,22.7181,0,1.48082
261.169,23.1066,0,1.48208
261.205,23.5078,0,1.4834
261.24,23.8964,0,1.48508
261.273,24.2851,0,1.48665
261.307,24.6738,0,1.48846
261.338,25.0501,0,1.49019
261.369,25.4264,0,1.49212
261.399,25.8028,0,1.49399
261.429,26.1792,0,1.49612
261.456,26.5306,0,1.49792
261.482,26.8939,0,1.50029
261.508,27.2454,0,1.50309
261.534,27.6094,0,1.5068
261.558,27.961,0,1.5117
261.58,28.3,0,1.51837
261.602,28.6518,0,1.52498
261.621,28.9785,0,1.53514
261.638,29.3053,0,1.5466
261.651,29.6448,0,1.56444
261.661,29.9719,0,1.57988
261.667,30.2865,0,1.60292
261.667,30.6137,0,1.62752
261.661,30.9157,0,1.65418
261.647,31.2426,0,1.68651
261.597,31.832,0,1.75988
261.51,32.4042,0,1.84272
261.385,32.9435,0,1.93525
261.222,33.4463,0,2.03075
260.997,33.9405,0,2.13012
260.721,34.435,0,2.22482
260.414,34.88,0,2.32381
260.048,35.3125,0,2.42502
259.836,35.5272,0,2.47025
259.612,35.7297,0,2.53026
259.368,35.9281,0,2.5749
259.115,36.1152,0,2.62308
258.842,36.2953,0,2.66665
258.56,36.4612,0,2.71921
258.258,36.6171,0,2.75958
257.949,36.7589,0,2.80285
257.622,36.8893,0,2.84386
257.278,37.0102,0,2.87679
256.928,37.1157,0,2.91236
256.563,37.2122,0,2.93373
256.208,37.2955,0,2.95434
255.838,37.3722,0,2.97749
255.478,37.4311,0,2.99275
255.093,37.493,0,3.00247
254.707,37.55,0,3.01246
254.308,37.6037,0,3.01965
253.908,37.6538,0,3.02311
253.496,37.7034,0,3.02525
253.083,37.7518,0,3.02658
252.671,37.7994,0,3.02751
252.245,37.8483,0,3.02746
251.82,37.8963,0,3.03045
251.395,37.9438,0,3.03076
250.957,37.9926,0,3.03134
250.532,38.0398,0,3.03288
250.082,38.0891,0,3.03421
249.631,38.138,0,3.03537
249.193,38.1848,0,3.03693
248.743,38.2324,0,3.03824
248.292,38.2793,0,3.03969
247.854,38.3243,0,3.04035
247.403,38.3703,0,3.04036
246.927,38.4188,0,3.04084
246.451,38.4669,0,3.04136
246.002,38.5114,0,3.04185
245.526,38.5591,0,3.04318
245.05,38.6064,0,3.04471
244.562,38.6542,0,3.0462
244.073,38.7013,0,3.04757
243.597,38.7463,0,3.04953
243.121,38.7905,0,3.05109
242.632,38.8353,0,3.05242
242.13,38.8803,0,3.0544
241.654,38.9221,0,3.05617
241.165,38.9643,0,3.05753
240.663,39.0068,0,3.05937
240.162,39.0485,0,3.06002
239.66,39.0898,0,3.06025
239.158,39.1306,0,3.06112
238.656,39.171,0,3.06118
238.142,39.2125,0,3.06087
237.64,39.2534,0,3.06033
237.138,39.2942,0,3.06035
236.649,39.334,0,3.06021
236.16,39.3738,0,3.05977
235.658,39.415,0,3.05945
235.214,39.4506,0,3.05915
234.75,39.4888,0,3.05833
234.26,39.5295,0,3.05732
233.771,39.5704,0,3.05686
233.307,39.6096,0,3.05615
232.831,39.6502,0,3.05539
232.354,39.6911,0,3.05484
231.903,39.73,0,3.05395
231.451,39.7695,0,3.05305
231,39.8093,0,3.05259
230.549,39.8494,0,3.05196
230.123,39.8876,0,3.05123
229.671,39.9283,0,3.05075
229.245,39.967,0,3.05041
228.819,40.0059,0,3.05068
228.405,40.0435,0,3.05127
227.979,40.0823,0,3.05119
227.553,40.1208,0,3.0519
227.127,40.1591,0,3.05242
226.726,40.195,0,3.05269
226.312,40.2319,0,3.05311
225.898,40.2685,0,3.0537
225.484,40.3051,0,3.05376
225.07,40.3416,0,3.05398
224.669,40.3767,0,3.05467
224.268,40.4117,0,3.05478
223.879,40.4456,0,3.055
223.478,40.4805,0,3.05555
223.077,40.5151,0,3.05589
222.675,40.5497,0,3.05558
222.287,40.5831,0,3.05561
221.885,40.6175,0,3.055
221.484,40.6522,0,3.05438
221.083,40.687,0,3.05385
220.669,40.7232,0,3.05304
220.268,40.7586,0,3.05197
219.867,40.7944,0,3.05097
219.453,40.8317,0,3.04943
219.04,40.8696,0,3.04837
218.626,40.9079,0,3.04727
218.225,40.9456,0,3.04645
217.799,40.9858,0,3.0462
217.411,41.0227,0,3.04555
216.985,41.0634,0,3.04545
216.584,41.1021,0,3.04518
216.171,41.1418,0,3.04522
215.77,41.1803,0,3.04524
215.344,41.2214,0,3.04484
214.918,41.2626,0,3.04491
214.517,41.3014,0,3.04522
214.091,41.3425,0,3.04511
213.666,41.3836,0,3.04529
213.24,41.4247,0,3.04534
212.814,41.4659,0,3.04517
212.4,41.5057,0,3.04578
211.974,41.5465,0,3.04632
211.548,41.5872,0,3.04645
211.122,41.6278,0,3.04664
210.709,41.6671,0,3.04689
210.283,41.7074,0,3.04734
209.857,41.7477,0,3.04743
209.443,41.7868,0,3.04738
209.017,41.8269,0,3.04787
208.579,41.868,0,3.0488
208.14,41.9089,0,3.04909
207.714,41.9485,0,3.0499
207.297,41.987,0,3.05074
206.87,42.0259,0,3.0512
206.432,42.0659,0,3.0513
205.993,42.1056,0,3.05222
205.567,42.144,0,3.05244
205.141,42.1822,0,3.05311
204.702,42.2211,0,3.05394
204.276,42.2588,0,3.0541
203.849,42.2961,0,3.05522
203.423,42.3331,0,3.05587
203.009,42.3686,0,3.05661
202.583,42.4051,0,3.05725
202.156,42.4412,0,3.05759
201.73,42.4773,0,3.05787
